1509439571.00
64.000000
-0.00
-0.00
-0.00
-0.00
-0.00
-0.00
-0.00
-0.00
-0.00
-0.00
0.00
0.01
0.01
-0.00
-0.03
-0.05
-0.05
0.00
0.13
0.36
0.66
1.01
1.37
1.72
2.06
2.40
2.79
3.24
3.80
4.42
5.06
5.66
6.20
6.68
7.15
7.68
8.31
9.14
10.09
11.04
11.88
12.56
13.14
13.76
14.65
15.96
17.91
20.32
22.90
25.38
27.58
29.57
31.68
34.32
37.81
42.54
48.15
54.10
59.83
64.97
69.58
74.14
79.34
85.71
93.76
103.00
112.62
121.73
129.77
136.75
143.30
150.75
157.77
166.64
177.95
191.79
206.97
220.57
228.25
225.36
208.53
176.87
132.76
80.05
23.07
-34.94
-92.44
-149.16
-205.23
-260.37
-313.74
-363.87
-409.83
-450.91
-486.50
-515.74
-537.23
-549.22
-549.96
-538.37
-514.21
-478.67
-433.88
-382.45
-327.02
-269.84
-212.63
-156.66
-102.95
-52.37
-5.90
35.58
71.43
101.35
125.50
144.38
158.69
169.15
176.37
180.75
182.57
182.07
179.51
175.23
169.65
163.18
156.14
148.80
141.30
133.69
126.02
118.34
110.71
103.19
95.86
88.77
81.94
75.40
69.15
63.19
57.54
52.20
47.19
42.49
38.10
34.03
30.25
26.77
23.57
20.66
18.03
15.68
13.59
11.76
10.18
8.84
7.72
6.80
6.07
5.50
5.10
4.83
4.68
4.64
4.70
4.85
5.07
5.37
5.74
6.16
6.66
7.21
7.81
8.48
9.21
10.01
10.88
11.82
12.82
13.90
15.06
16.27
17.56
18.92
20.38
21.94
23.59
25.33
27.15
28.98
30.74
32.33
33.59
34.35
34.43
33.68
32.01
29.37
25.81
21.38
16.31
10.83
5.25
-0.14
-5.04
-9.22
-12.54
-14.93
-16.44
-17.20
-17.40
-17.33
-17.25
-17.41
-17.97
-19.08
-20.78
-22.98
-25.57
-28.40
-31.28
-33.99
-36.32
-38.06
-38.97
-38.83
-37.42
-34.55
-30.12
-24.12
-16.59
-7.70
2.29
13.02
23.97
34.69
44.91
54.27
62.58
69.77
75.75
80.54
84.26
87.09
89.34
91.51
93.83
96.53
99.69
103.19
106.79
110.26
113.15
115.34
117.15
118.73
120.31
121.86
123.00
123.08
121.34
116.20
106.41
94.55
82.53
71.90
63.30
56.31
49.93
43.10
33.42
19.98
3.81
-13.11
-28.68
-42.12
-54.16
-66.53
-80.85
-100.76
-127.56
-159.62
-193.42
-225.33
-253.48
-278.26
-301.70
-326.63
-360.02
-406.94
-468.27
-539.62
-612.02
-674.46
-716.87
-733.02
-698.01
-605.54
-468.38
-312.94
-165.51
-41.42
55.98
130.04
185.41
225.71
249.83
258.21
254.62
245.34
236.50
231.52
230.62
231.80
232.70
228.81
217.93
200.99
181.27
162.43
146.60
133.97
123.39
113.56
101.76
86.70
68.94
50.48
33.56
19.39
7.99
-1.45
-9.94
-19.21
-30.27
-43.19
-57.13
-70.83
-83.31
-93.97
-102.44
-108.54
-112.46
-114.25
-113.60
-110.17
-102.52
-89.28
-69.52
-43.13
-11.05
24.61
60.96
94.94
124.32
147.85
165.39
177.70
185.86
190.60
191.97
189.55
183.05
173.20
161.55
150.32
141.88
138.28
140.88
150.33
166.20
184.34
200.45
208.57
202.49
178.51
137.71
86.40
34.01
-10.59
-42.29
-60.77
-69.62
-73.53
-75.77
-77.32
-77.81
-76.95
-75.51
-74.96
-76.49
-80.22
-84.96
-88.76
-89.75
-87.07
-81.16
-73.43
-65.56
-58.67
-53.04
-48.16
-43.00
-36.65
-28.75
-19.68
-10.36
-2.02
4.47
8.65
10.64
11.04
10.67
10.32
10.55
11.62
13.34
15.24
16.73
17.26
16.63
14.96
12.82
10.80
9.76
9.99
11.33
13.16
14.26
12.79
6.55
-5.96
-24.33
-45.17
-62.77
-71.12
-66.37
-48.61
-21.78
7.75
33.49
50.56
56.38
50.52
34.55
11.80
-13.06
-33.91
-45.94
-47.12
-38.81
-24.94
-10.08
2.41
11.39
17.05
20.23
21.41
20.76
18.62
15.84
13.58
12.87
14.15
16.99
20.38
23.11
24.32
23.79
22.01
19.96
18.75
19.13
21.28
24.71
28.44
31.36
32.68
32.14
30.13
27.48
24.95
22.95
21.28
18.84
14.24
6.05
-6.72
-24.31
-45.61
-68.11
-88.16
-101.90
-106.50
-101.39
-88.57
-71.84
-55.17
-41.21
-30.74
-23.14
-17.32
-12.24
-6.98
-0.57
7.87
18.40
29.23
36.86
37.50
29.32
14.29
-2.19
-14.03
-17.50
-13.04
-4.57
3.41
8.63
11.98
16.13
23.00
31.89
39.59
42.35
38.33
28.57
16.17
4.46
-4.78
-11.70
-17.49
-23.08
-28.21
-31.29
-29.92
-22.36
-9.23
6.68
20.09
25.33
19.06
2.37
-19.15
-37.46
-45.19
-39.48
-22.75
-0.93
19.71
35.29
44.99
50.34
53.40
55.44
56.32
54.91
49.71
38.90
22.17
1.50
-19.23
-35.60
-45.01
-47.92
-47.09
-45.32
-43.40
-39.80
-32.78
-22.99
-14.49
-12.75
-20.70
-35.71
-49.96
-54.43
-44.21
-21.64
4.88
25.85
35.94
36.29
32.46
30.10
31.06
32.74
30.54
21.51
6.76
-9.14
-20.73
-24.74
-21.70
-15.10
-9.25
-6.91
-8.16
-10.91
-12.51
-11.21
-6.55
0.52
8.29
14.74
18.04
16.89
10.98
1.20
-10.47
-21.18
-28.26
-30.33
-28.00
-23.45
-19.17
-17.00
-17.69
-21.07
-25.97
-30.48
-32.48
-30.17
-22.29
-8.43
10.57
32.37
51.74
62.18
60.27
48.46
33.08
19.96
11.94
8.87
8.96
10.29
11.95
14.11
17.14
20.63
23.41
24.19
22.38
18.36
13.27
8.66
5.98
5.78
7.32
9.12
9.68
8.37
5.49
2.02
-0.76
-1.81
-0.88
1.19
3.05
3.53
2.24
-0.29
-2.96
-4.53
-4.26
-2.24
0.45
2.42
2.67
1.04
-1.61
-3.92
-4.72
-3.43
-0.32
3.49
6.85
8.82
8.70
6.00
0.69
-6.19
-12.13
-13.39
-7.01
8.02
29.30
51.42
68.04
74.44
69.53
55.33
36.96
18.77
3.24
-9.25
-19.32
-27.41
-33.33
-36.63
-37.28
-35.99
-34.12
-32.77
-32.59
-33.24
-34.05
-34.36
-33.95
-33.17
-32.56
-32.69
-33.58
-34.79
-35.57
-35.53
-34.84
-34.18
-34.17
-35.12
-36.71
-37.93
-37.48
-34.13
-26.87
-15.01
1.39
20.95
40.54
55.67
61.96
56.72
41.56
21.28
2.00
-11.47
-17.48
-17.59
-14.90
-12.03
-9.96
-8.29
-6.53
-5.11
-5.30
-8.31
-14.20
-21.48
-27.98
-31.77
-32.03
-29.66
-26.59
-25.03
-26.81
-32.89
-42.82
-54.28
-63.17
-64.48
-54.38
-32.11
-1.05
32.03
59.64
76.58
81.92
78.85
72.53
67.36
65.15
65.07
64.97
63.13
59.27
54.48
50.42
48.39
48.83
51.37
54.78
57.61
58.71
57.62
54.62
50.77
47.45
45.91
46.98
51.18
58.39
67.48
76.02
80.01
74.74
56.84
25.80
-13.80
-53.13
-82.08
-93.33
-85.63
-64.37
-38.94
-18.80
-9.06
-9.14
-14.48
-19.87
-22.36
-22.27
-21.97
-23.75
-27.89
-32.51
-34.65
-32.46
-26.08
-17.67
-9.89
-4.54
-1.60
-0.27
-0.54
-3.96
-12.81
-27.88
-46.74
-63.77
-72.51
-68.98
-53.89
-32.28
-10.83
5.41
14.87
19.01
20.27
20.21
19.05
16.52
13.12
10.42
10.21
13.22
18.44
23.77
26.88
26.55
23.31
18.85
15.28
14.49
17.54
24.15
32.34
38.46
38.23
28.40
8.40
-18.93
-47.94
-72.23
-87.30
-92.11
-88.87
-81.36
-72.87
-64.85
-57.44
-50.46
-44.48
-41.02
-42.03
-48.82
-60.99
-75.81
-88.44
-93.10
-85.52
-64.86
-34.60
-1.65
26.17
43.14
47.80
42.25
31.63
20.33
10.31
1.23
-7.96
-17.50
-26.19
-31.97
-33.22
-29.74
-22.97
-15.12
-8.35
-3.49
-0.18
2.68
6.25
11.32
17.64
24.02
28.89
30.91
29.52
24.86
17.55
8.22
-2.25
-13.53
-25.83
-39.37
-54.25
-70.06
-86.08
-101.50
-115.69
-127.33
-135.72
-140.66
-142.26
-140.87
-136.89
-130.88
-123.65
-116.31
-108.93
-102.05
-96.22
-91.86
-88.93
-86.73
-83.73
-77.18
-71.92
-68.49
-66.67
-65.95
-65.81
-65.89
-66.14
-66.84
-68.64
-72.49
-78.11
-85.51
-94.49
-104.55
-114.81
-124.20
-131.64
-136.38
-138.21
-136.49
-131.36
-123.35
-113.03
-100.84
-87.04
-71.84
-55.40
-38.46
-21.74
-6.56
5.97
15.49
22.56
28.42
34.58
42.44
52.36
63.85
75.56
86.24
95.62
104.72
115.47
129.98
150.16
176.10
205.76
235.88
263.46
287.16
307.53
326.54
346.75
372.42
406.15
447.60
493.13
536.58
570.32
586.87
581.68
555.58
519.39
486.00
464.67
458.00
462.84
472.78
480.62
480.69
469.94
453.95
437.03
419.00
396.74
368.73
336.97
305.50
278.29
257.66
252.03
264.57
290.43
319.54
342.97
356.03
357.45
347.59
277.69
133.14
-59.03
-249.08
-401.11
-505.99
-571.80
-611.04
-633.08
-642.24
-630.42
-591.92
-530.35
-458.92
-393.17
-344.65
-318.62
-309.04
-305.47
-291.19
-256.31
-202.79
-141.76
-85.55
-42.47
-14.71
0.42
6.65
10.67
15.31
18.01
12.80
-0.97
-21.99
-46.79
-71.27
-93.64
-112.10
-127.01
-140.49
-155.16
-171.81
-189.51
-205.80
-217.89
-226.17
-232.18
-237.99
-244.69
-252.32
-260.18
-268.41
-277.80
-289.37
-305.80
-327.39
-349.77
-364.58
-363.55
-342.74
-304.24
-253.97
-198.48
-146.50
-105.60
-81.44
-77.77
-97.13
-140.33
-204.40
-281.21
-337.00
-342.92
-289.65
-194.20
-86.18
10.41
84.88
137.62
174.56
202.51
223.08
235.44
239.04
235.81
229.22
222.09
215.82
209.75
203.27
194.54
183.82
173.95
168.94
171.31
177.48
180.95
174.92
156.76
127.02
90.41
52.69
18.22
-10.31
-32.03
-47.66
-57.71
-62.36
-64.03
-65.69
-70.50
-79.51
-88.50
-89.84
-77.51
-50.90
-15.67
16.63
36.28
38.08
23.43
-1.84
-27.62
-47.91
-63.26
-77.03
-91.09
-98.17
-87.78
-52.82
9.64
93.28
184.14
268.58
340.99
403.24
464.53
528.73
563.93
543.01
460.06
333.89
194.33
79.86
-6.91
-68.17
-108.92
-135.75
-150.34
-151.56
-140.98
-124.53
-111.72
-112.29
-126.13
-147.45
-169.39
-184.36
-188.77
-184.31
-175.76
-166.92
-159.44
-149.11
-131.61
-105.68
-72.96
-38.97
-11.96
1.38
0.53
-7.94
-11.62
-0.86
26.65
63.65
99.21
123.94
134.23
133.28
127.53
123.01
121.09
118.55
110.62
95.44
75.25
55.41
41.42
35.71
37.04
41.33
44.00
41.16
30.88
13.21
-10.47
-39.14
-69.21
-95.28
-111.28
-110.19
-91.01
-63.35
-42.50
-38.77
-50.25
-65.30
-71.07
-60.74
-36.48
-7.20
17.19
31.05
33.75
27.68
16.11
1.81
-12.56
-23.72
-27.56
-20.27
0.24
30.99
66.58
99.69
120.09
119.26
94.46
49.86
-5.28
-60.90
-111.80
-155.70
-191.50
-218.24
-233.51
-232.52
-210.13
-164.00
-86.50
9.31
97.16
156.45
182.22
180.63
160.36
128.00
88.61
47.62
10.02
-17.11
-27.44
-20.63
-4.42
13.55
27.28
34.18
34.97
30.63
23.90
18.71
17.05
17.82
17.86
12.91
-1.09
-27.46
-67.31
-118.08
-167.53
-200.64
-208.07
-191.77
-162.00
-128.86
-96.94
-65.74
-32.32
4.65
41.66
71.96
89.01
90.17
77.57
57.55
35.34
16.08
4.64
4.51
16.86
39.75
67.60
92.08
104.94
101.04
80.31
46.88
5.63
-40.58
-89.03
-133.70
-166.65
-179.39
-165.19
-121.87
-54.22
25.67
100.79
153.92
172.49
152.00
97.89
24.78
-47.28
-98.49
-115.21
-93.83
-41.32
27.16
92.51
136.98
148.80
125.22
73.13
7.16
-54.42
-95.09
-105.05
-83.85
-39.74
13.34
59.64
85.53
82.65
50.05
-5.05
-68.55
-123.39
-155.08
-156.75
-131.49
-90.46
-47.82
-15.04
2.63
6.19
0.41
-9.37
-19.12
-26.47
-29.83
-27.85
-19.77
-6.30
10.02
25.38
36.16
40.42
38.74
34.09
30.69
32.59
42.06
58.50
78.43
96.71
108.69
112.32
108.90
101.96
94.60
86.92
75.14
53.59
18.29
-29.34
-81.20
-124.45
-146.28
-139.20
-104.42
-52.18
1.69
41.13
55.22
41.47
6.31
-37.51
-75.14
-94.01
-86.98
-53.55
0.79
66.28
130.57
180.83
206.09
199.77
161.81
99.69
27.41
-37.78
-79.94
-89.02
-63.59
-10.80
55.78
119.64
165.25
181.36
163.24
113.91
43.75
-31.59
-94.92
-132.22
-136.52
-109.44
-60.04
-1.78
51.38
87.87
100.35
86.40
48.55
-5.74
-64.78
-114.31
-140.80
-135.04
-95.17
-27.41
55.88
139.44
208.70
252.42
264.37
244.06
197.33
135.85
75.26
31.89
18.37
39.70
91.67
162.28
235.47
295.68
331.44
336.68
310.87
257.90
185.37
103.56
24.08
-42.25
-87.88
-110.49
-113.73
-105.54
-95.45
-91.33
-97.68
-115.46
-142.85
-176.37
-211.72
-244.47
-270.50
-286.76
-291.94
-286.63
-272.93
-253.35
-229.70
-203.08
-174.67
-146.18
-119.87
-97.60
-79.80
-65.49
-53.22
-42.69
-35.51
-34.39
-40.98
-54.06
-69.25
-80.67
-83.84
-77.79
-65.37
-51.10
-38.80
-29.72
-22.87
-17.00
-12.36
-10.91
-14.57
-23.10
-32.92
-38.43
-34.60
-19.35
5.68
36.28
67.84
97.00
122.06
142.15
156.27
163.31
162.92
156.46
146.78
136.79
127.44
117.06
101.67
76.21
37.06
-15.94
-79.09
-145.90
-209.37
-264.27
-307.36
-336.78
-351.79
-351.43
-333.66
-296.14
-237.71
-160.00
-69.11
25.70
113.66
183.46
226.25
238.56
223.31
188.48
144.55
100.40
62.44
34.56
17.09
8.66
7.83
13.31
23.33
40.20
60.19
72.88
75.12
66.62
45.98
11.74
-36.72
-97.95
-167.04
-236.20
-294.41
-329.54
-333.50
-304.58
-247.59
-172.32
-90.26
-11.31
57.48
112.69
153.37
177.85
183.75
169.77
137.35
91.76
41.16
-6.26
-44.15
-69.01
-80.73
-80.60
-69.58
-47.87
-15.67
25.68
72.82
120.93
164.63
198.39
217.81
220.68
207.50
181.51
148.09
112.99
80.61
52.40
26.87
1.43
-25.32
-52.29
-76.36
-94.21
-104.45
-108.44
-109.49
-110.77
-113.34
-115.91
-115.89
-111.13
-101.01
-86.46
-69.32
-51.45
-34.10
-17.40
-1.06
15.38
32.72
52.06
74.59
100.83
129.74
158.65
185.20
207.05
222.48
230.89
232.99
230.31
224.14
214.21
198.66
177.11
149.63
116.52
78.51
37.71
-2.32
-37.55
-65.24
-84.56
-92.59
-88.44
-74.70
-57.74
-44.69
-39.78
-42.65
-48.88
-51.55
-38.90
-3.16
56.12
131.43
212.23
290.37
362.32
427.82
457.98
434.58
361.05
262.23
163.61
78.15
8.13
-47.49
-90.72
-123.63
-140.70
-140.12
-121.69
-89.64
-52.05
-17.46
8.75
22.59
21.96
12.77
0.68
-7.04
-6.09
2.67
15.55
30.67
44.27
50.74
49.02
39.58
25.41
9.80
-6.48
-23.97
-40.72
-58.52
-83.10
-116.66
-159.02
-204.93
-233.08
-224.54
-197.98
-167.09
-130.50
-91.79
-54.20
-23.70
-4.98
-1.16
-15.29
-48.16
-93.21
-142.90
-191.68
-234.06
-269.86
-299.64
-323.78
-343.84
-361.89
-377.23
-390.68
-405.54
-400.46
-365.26
-303.93
-232.85
-169.92
-124.48
-93.94
-69.60
-41.80
-2.61
47.08
101.30
151.58
190.21
212.99
221.25
219.91
214.90
211.01
207.41
201.55
191.70
178.30
163.62
150.68
141.68
137.44
137.61
139.05
138.85
135.44
128.90
120.32
110.95
101.98
94.80
91.04
91.35
95.93
103.31
109.97
110.36
98.73
71.46
29.65
-20.68
-70.21
-108.58
-127.50
-122.56
-95.05
-52.21
-5.88
30.56
45.85
34.68
-0.43
-50.71
-104.00
-149.32
-180.01
-194.49
-194.46
-182.82
-161.93
-132.41
-97.66
-61.41
-27.86
-0.69
18.46
30.57
38.36
44.92
52.35
60.45
67.87
72.46
72.76
68.75
62.20
55.71
51.88
52.25
56.51
63.36
70.68
76.76
80.80
83.38
85.58
88.42
91.93
94.72
94.85
90.00
78.67
60.57
36.85
9.15
-20.58
-50.37
-77.91
-100.69
-116.78
-125.82
-130.44
-133.14
-136.57
-141.79
-147.21
-149.21
-144.08
-130.07
-107.35
-80.19
-52.67
-27.53
-5.81
12.68
28.24
40.66
49.23
53.52
53.65
50.80
46.79
43.14
40.81
39.96
39.96
39.91
38.95
36.55
33.13
29.39
26.07
23.73
22.44
21.90
21.55
20.80
19.17
16.75
13.81
10.86
8.36
6.70
5.89
5.66
5.45
4.61
2.80
0.02
-3.27
-6.33
-8.40
-9.12
-8.67
-7.81
-7.60
-8.81
-11.57
-15.25
-18.66
-20.63
-20.68
-19.17
-17.21
-16.03
-16.26
-17.74
-19.82
-22.06
-24.44
-26.90
-28.45
-26.58
-18.18
-1.01
24.61
55.08
84.83
108.79
124.53
132.69
135.40
133.84
126.89
112.16
88.37
57.64
25.64
-0.61
-16.05
-19.74
-14.78
-6.14
1.95
7.54
10.93
12.90
13.42
11.04
3.66
-10.43
-31.49
-57.70
-85.24
-108.52
-121.84
-121.15
-105.94
-79.95
-50.05
-23.75
-5.81
2.70
4.33
3.13
2.23
2.48
2.85
1.91
-0.73
-3.90
-5.83
-5.26
-2.30
1.70
4.95
5.99
4.64
1.78
-1.06
-2.58
-2.18
-0.22
2.23
3.99
4.26
3.00
0.82
-1.38
-2.84
-3.25
-2.84
-2.19
-1.89
-2.35
-3.57
-5.25
-6.94
-8.33
-9.22
-9.76
-10.20
-10.83
-11.88
-13.40
-15.41
-17.87
-20.81
-24.21
-28.14
-32.57
-37.31
-42.03
-46.21
-49.35
-50.90
-50.56
-48.07
-43.45
-36.96
-29.06
-20.34
-11.35
-2.65
5.34
12.32
18.14
22.75
26.19
28.57
29.98
30.53
30.36
29.52
28.06
26.05
23.55
20.67
17.59
14.42
11.30
8.55
6.37
4.80
3.67
2.82
1.92
0.67
-1.14
-3.67
-6.50
-9.20
-11.52
-13.64
-15.59
-17.53
-19.65
-22.02
-24.63
-26.52
-26.84
-25.28
-22.28
-18.40
-14.58
-11.82
-11.06
-12.90
-16.26
-19.74
-22.38
-23.81
-23.60
-21.49
-17.11
-9.87
1.14
19.08
47.35
88.86
141.34
201.89
266.40
330.06
388.01
424.92
431.06
405.15
354.65
290.86
224.60
163.22
111.22
70.91
42.41
24.59
12.70
-0.91
-24.34
-61.37
-109.60
-160.92
-205.16
-234.49
-244.80
-237.51
-218.12
-193.58
-169.49
-149.72
-136.82
-132.07
-134.90
-141.01
-143.24
-133.54
-106.40
-61.10
-4.22
51.87
93.11
108.72
95.69
59.46
11.34
-36.38
-74.20
-98.66
-111.68
-117.77
-121.31
-124.67
-128.22
-131.47
-135.70
-140.70
-146.51
-152.30
-155.88
-154.21
-144.63
-125.92
-97.82
-64.36
-29.93
1.46
27.35
47.16
61.71
72.51
80.80
87.09
90.88
91.89
89.91
85.32
79.09
72.53
66.81
62.59
59.85
57.76
55.73
53.22
50.05
46.46
42.84
39.59
36.99
35.04
33.43
32.02
30.61
29.11
27.57
26.08
24.77
23.75
23.10
22.80
22.91
23.39
24.20
25.23
26.23
26.91
26.98
26.19
24.32
21.29
17.16
12.07
6.26
0.12
-6.03
-11.85
-17.09
-21.51
-25.00
-27.58
-29.43
-30.76
-31.78
-32.70
-33.79
-35.32
-37.36
-39.82
-42.53
-45.22
-47.52
-49.01
-49.27
-47.60
-44.14
-38.98
-32.30
-24.45
-15.97
-7.38
0.83
8.21
14.42
19.20
22.50
24.51
25.49
25.70
25.44
24.90
24.25
23.58
22.89
22.16
21.41
20.70
20.13
19.78
19.66
19.73
19.91
20.05
20.08
20.06
20.06
20.25
20.79
21.74
22.96
24.21
25.23
25.85
26.21
26.67
27.76
30.08
33.97
39.18
45.17
51.03
55.94
59.33
61.00
60.91
59.08
55.25
48.79
38.86
24.83
6.73
-14.19
-35.96
-56.24
-73.09
-85.39
-93.25
-97.67
-100.05
-102.00
-104.31
-107.84
-112.91
-118.52
-122.07
-119.77
-108.06
-85.70
-54.98
-21.27
8.67
29.68
40.14
42.06
39.38
35.70
32.73
30.34
27.66
24.30
20.92
18.80
18.71
20.42
22.70
24.12
23.57
21.05
17.43
13.99
11.88
11.55
12.61
14.12
14.99
14.57
12.84
10.38
8.02
6.47
6.02
6.45
7.19
7.64
7.40
6.48
5.16
3.89
3.01
2.67
2.79
3.10
3.33
3.30
3.01
2.56
2.13
1.83
1.73
1.79
1.95
2.12
2.26
2.36
2.43
2.50
2.57
2.65
2.75
2.84
2.94
3.04
3.15
3.26
3.37
3.49
3.62
3.75
3.89
4.04
4.21
4.37
4.54
4.72
4.89
5.05
5.16
5.25
5.31
5.39
5.51
5.69
5.92
6.16
6.36
6.48
6.53
6.52
6.53
6.60
6.79
7.06
7.34
7.56
7.63
7.57
7.42
7.30
7.32
7.52
7.87
8.20
8.31
8.04
7.39
6.48
5.59
5.03
4.93
5.18
5.39
5.09
3.88
1.72
-1.07
-3.85
-5.98
-7.15
-7.56
-7.96
-9.30
-12.29
-17.04
-22.94
-28.88
-33.76
-37.06
-39.19
-41.39
-45.17
-51.68
-61.11
-72.63
-84.67
-95.46
-103.19
-106.30
-103.55
-94.80
-81.05
-65.02
-50.72
-41.89
-40.00
-43.15
-46.66
-45.40
-36.38
-20.23
-0.75
17.33
30.82
39.34
44.71
49.29
54.33
59.37
63.11
64.51
63.66
61.74
60.33
60.37
61.72
63.30
63.74
61.96
57.80
51.90
45.42
39.55
34.89
31.38
28.43
25.27
21.36
16.57
11.26
6.02
1.41
-2.30
-5.16
-7.48
-9.64
-11.87
-14.19
-16.42
-18.27
-19.44
-19.74
-19.13
-17.75
-15.95
-14.18
-12.84
-12.12
-11.97
-12.05
-12.02
-11.65
-10.96
-10.21
-9.54
-9.04
-8.61
-8.06
-7.18
-5.94
-4.48
-3.04
-1.82
-0.83
0.00
0.80
1.58
2.25
2.66
2.78
2.71
2.66
2.78
3.06
3.35
3.49
3.44
3.28
3.14
3.09
3.02
2.77
2.22
1.48
0.82
0.56
0.85
1.57
2.35
2.83
2.83
2.48
2.17
2.32
3.11
4.43
5.87
6.96
7.34
6.87
5.65
3.79
1.50
-0.88
-2.85
-3.79
-3.35
-1.73
0.30
1.69
1.69
0.37
-1.35
-2.16
-0.95
2.53
7.70
13.46
18.74
22.88
25.72
27.40
28.12
28.07
27.37
26.18
24.71
23.19
21.87
20.98
20.65
20.83
21.32
21.72
21.65
20.83
19.18
16.93
14.34
11.64
8.85
5.84
2.46
-1.28
-5.21
-9.07
-12.60
-15.73
-18.56
-21.25
-23.95
-26.68
-29.32
-31.73
-33.78
-35.43
-36.70
-37.62
-38.20
-38.41
-38.25
-37.72
-36.88
-35.80
-34.45
-32.76
-30.61
-27.89
-24.57
-20.81
-16.85
-13.01
-9.53
-6.50
-3.85
-1.42
0.93
3.21
5.31
7.07
8.39
9.28
9.92
10.55
11.29
12.13
12.89
13.37
13.46
13.21
12.78
12.34
12.02
11.82
11.66
11.47
11.21
10.87
10.48
10.07
9.63
9.17
8.70
8.20
7.63
6.92
6.03
4.99
3.91
2.92
2.11
1.46
0.87
0.23
-0.51
-1.26
-1.90
-2.31
-2.50
-2.58
-2.68
-2.87
-3.07
-3.15
-2.98
-2.58
-2.10
-1.77
-1.73
-1.98
-2.34
-2.56
-2.45
-1.93
-1.07
-0.00
1.10
2.12
2.97
3.64
4.13
4.50
4.80
5.06
5.30
5.49
5.60
5.61
5.52
5.31
5.04
4.72
4.44
4.25
4.23
4.39
4.67
4.99
5.24
5.41
5.50
5.52
5.50
5.44
5.30
5.04
4.62
4.05
3.37
2.62
1.89
1.19
0.52
-0.15
-0.83
-1.45
-1.93
-2.18
-2.18
-2.04
-1.85
-1.73
-1.67
-1.61
-1.46
-1.19
-0.83
-0.44
-0.10
0.16
0.33
0.38
0.30
0.12
-0.11
-0.31
-0.48
-0.71
-1.16
-1.96
-3.03
-4.16
-5.06
-5.52
-5.52
-5.23
-4.87
-4.64
-4.59
-4.67
-4.82
-4.97
-5.10
-5.15
-5.02
-4.57
-3.78
-2.71
-1.54
-0.49
0.28
0.73
0.88
0.86
0.76
0.66
0.61
0.59
0.56
0.46
0.24
-0.07
-0.36
-0.48
-0.34
0.06
0.61
1.17
1.68
2.19
2.77
3.46
4.18
4.73
4.93
4.74
4.30
3.89
3.73
3.89
4.24
4.47
4.34
3.73
2.76
1.66
0.71
0.10
-0.09
0.11
0.58
1.19
1.76
2.20
2.41
2.40
2.24
2.00
1.80
1.68
1.71
1.91
2.33
2.96
3.74
4.57
5.29
5.81
6.10
6.27
6.45
6.78
7.34
8.10
8.96
9.72
10.14
10.01
9.26
8.07
6.82
5.99
5.90
6.45
7.11
7.04
5.43
1.93
-3.11
-8.75
-13.74
-17.23
-19.06
-19.96
-21.15
-23.81
-28.59
-35.22
-42.79
-50.13
-56.08
-59.51
-59.50
-55.44
-47.77
-38.18
-29.29
-23.66
-22.27
-23.60
-23.80
-18.51
-5.09
15.83
40.34
63.00
79.08
86.35
85.36
78.38
67.91
55.70
42.64
29.21
16.09
4.33
-4.90
-10.78
-13.39
-13.60
-12.74
-12.08
-12.40
-13.70
-15.44
-16.70
-16.62
-14.86
-11.64
-7.78
-4.26
-1.85
-0.72
-0.42
-0.13
0.89
2.87
5.50
8.14
10.17
11.35
11.78
11.78
11.66
11.56
11.49
11.49
11.65
12.10
12.87
13.78
14.46
14.49
13.55
11.53
8.58
5.02
1.27
-2.25
-5.23
-7.60
-9.56
-11.57
-14.16
-17.65
-21.96
-26.51
-30.45
-32.89
-33.23
-31.33
-27.48
-22.24
-16.26
-10.12
-4.29
0.90
5.17
8.31
10.18
10.74
10.11
8.60
6.69
4.83
3.35
2.27
1.38
0.39
-0.81
-2.07
-2.98
-3.15
-2.48
-1.17
0.28
1.42
2.05
2.28
2.37
2.54
2.84
3.17
3.39
3.50
3.62
3.86
4.21
4.49
4.38
3.73
2.54
1.10
-0.25
-1.24
-1.83
-2.14
-2.40
-2.71
-3.03
-3.21
-3.05
-2.50
-1.61
-0.58
0.42
1.21
1.76
2.10
2.31
2.47
2.65
2.84
3.02
3.16
3.24
3.31
3.40
3.51
3.61
3.62
3.46
3.10
2.62
2.16
1.91
1.95
2.22
2.54
2.64
2.35
1.62
0.64
-0.32
-0.95
-1.13
-0.95
-0.66
-0.50
-0.62
-1.01
-1.52
-2.05
-2.54
-3.03
-3.57
-4.10
-4.52
-4.72
-4.69
-4.57
-4.56
-4.79
-5.19
-5.47
-5.29
-4.45
-3.01
-1.28
0.32
1.53
2.34
2.93
3.51
4.13
4.64
4.81
4.45
3.67
2.77
2.14
1.99
2.31
2.81
3.15
3.08
2.59
1.88
1.22
0.79
0.64
0.64
0.60
0.41
0.06
-0.33
-0.62
-0.67
-0.47
-0.10
0.31
0.64
0.83
0.88
0.84
0.74
0.63
0.54
0.45
0.40
0.37
0.37
0.36
0.30
0.10
-0.27
-0.82
-1.48
-2.20
-2.91
-3.59
-4.22
-4.79
-5.21
-5.39
-5.26
-4.83
-4.23
-3.65
-3.22
-2.99
-2.90
-2.82
-2.70
-2.49
-2.24
-1.96
-1.67
-1.35
-0.97
-0.64
-0.43
-0.42
-0.57
-0.73
-0.73
-0.44
0.06
0.64
1.06
1.22
1.16
1.09
1.22
1.68
2.44
3.31
4.10
4.73
5.25
5.83
6.58
7.52
8.51
9.40
10.03
10.43
10.66
10.83
10.89
10.70
10.14
9.14
7.79
6.32
4.91
3.65
2.52
1.42
0.35
-0.62
-1.35
-1.78
-1.94
-1.99
-2.10
-2.30
-2.53
-2.65
-2.54
-2.21
-1.79
-1.43
-1.19
-1.06
-0.95
-0.79
-0.60
-0.44
-0.43
-0.57
-0.77
-0.91
-0.89
-0.76
-0.71
-0.96
-1.67
-2.85
-4.30
-5.78
-7.09
-8.17
-9.07
-9.81
-10.37
-10.63
-10.54
-10.16
-9.66
-9.23
-8.91
-8.57
-7.95
-6.89
-5.34
-3.51
-1.64
0.02
1.36
2.38
3.10
3.58
3.82
3.87
3.82
3.77
3.75
3.74
3.62
3.29
2.68
1.82
0.90
0.14
-0.23
-0.17
0.25
0.81
1.29
1.62
1.84
2.03
2.28
2.58
2.84
3.04
3.20
3.44
3.79
4.16
4.32
4.07
3.31
2.15
0.85
-0.35
-1.29
-1.90
-2.19
-2.19
-1.97
-1.65
-1.37
-1.22
-1.18
-1.09
-0.75
-0.03
1.02
2.18
3.18
3.85
4.22
4.42
4.61
4.86
5.07
5.03
4.55
3.61
2.39
1.18
0.32
0.01
0.18
0.62
0.99
1.08
0.83
0.35
-0.19
-0.76
-1.45
-2.45
-3.88
-5.64
-7.39
-8.73
-9.43
-9.58
-9.49
-9.50
-9.67
-9.78
-9.45
-8.45
-6.90
-5.19
-3.72
-2.62
-1.72
-0.72
0.54
1.86
2.86
3.22
2.91
2.26
1.72
1.55
1.76
2.11
2.35
2.43
2.46
2.63
2.98
3.40
3.68
3.67
3.38
2.99
2.70
2.63
2.76
2.94
3.01
2.88
2.57
2.16
1.79
1.56
1.47
1.48
1.46
1.33
1.05
0.73
0.48
0.40
0.48
0.62
0.73
0.70
0.58
0.44
0.36
0.35
0.35
0.29
0.14
-0.05
-0.25
-0.40
-0.55
-0.68
-0.81
-0.88
-0.87
-0.83
-0.84
-0.99
-1.28
-1.63
-1.88
-1.94
-1.80
-1.52
-1.19
-0.90
-0.68
-0.56
-0.57
-0.71
-0.93
-1.12
-1.12
-0.83
-0.33
0.22
0.59
0.67
0.51
0.33
0.30
0.48
0.76
0.91
0.83
0.57
0.32
0.29
0.58
1.07
1.51
1.68
1.53
1.12
0.64
0.17
-0.24
-0.63
-1.00
-1.26
-1.28
-0.94
-0.24
0.65
1.47
1.93
1.91
1.44
0.69
-0.09
-0.68
-0.98
-0.96
-0.69
-0.28
0.11
0.38
0.43
0.28
0.01
-0.24
-0.30
-0.09
0.35
0.85
1.18
1.15
0.70
-0.05
-0.89
-1.57
-1.96
-2.01
-1.80
-1.44
-1.02
-0.58
-0.13
0.30
0.65
0.83
0.76
0.45
-0.03
-0.55
-0.98
-1.22
-1.25
-1.12
-0.89
-0.62
-0.35
-0.07
0.20
0.40
0.48
0.39
0.12
-0.24
-0.56
-0.70
-0.60
-0.28
0.16
0.62
1.01
1.28
1.46
1.56
1.61
1.61
1.56
1.44
1.23
0.90
0.46
-0.01
-0.40
-0.58
-0.45
-0.06
0.40
0.68
0.64
0.27
-0.24
-0.64
-0.80
-0.73
-0.58
-0.54
-0.69
-0.94
-1.15
-1.22
-1.16
-1.08
-1.08
-1.14
-1.16
-0.96
-0.47
0.17
0.76
1.09
1.12
1.00
0.95
1.16
1.64
2.23
2.65
2.67
2.25
1.51
0.72
0.10
-0.21
-0.25
-0.17
-0.15
-0.25
-0.43
-0.56
-0.51
-0.27
0.03
0.19
0.09
-0.25
-0.64
-0.87
-0.81
-0.50
-0.19
-0.08
-0.28
-0.73
-1.24
-1.54
-1.53
-1.19
-0.66
-0.09
0.31
0.47
0.39
0.15
-0.07
-0.17
-0.11
0.05
0.18
0.19
0.06
-0.14
-0.29
-0.34
-0.30
-0.25
-0.27
-0.38
-0.52
-0.56
-0.40
-0.01
0.55
1.15
1.60
1.76
1.52
0.91
0.04
-0.88
-1.63
-2.07
-2.16
-1.95
-1.53
-0.98
-0.38
0.18
0.64
0.90
0.91
0.70
0.40
0.15
0.07
0.16
0.35
0.51
0.58
0.53
0.40
0.24
0.08
-0.08
-0.29
-0.51
-0.70
-0.68
-0.33
0.40
1.40
2.32
2.81
2.56
1.59
0.22
-1.03
-1.73
-1.71
-1.20
-0.58
-0.20
-0.13
-0.21
-0.20
0.06
0.47
0.83
0.92
0.69
0.29
-0.08
-0.22
-0.13
0.08
0.25
0.23
-0.00
-0.39
-0.81
-1.12
-1.21
-1.08
-0.79
-0.45
-0.18
-0.05
-0.04
-0.11
-0.18
-0.17
-0.05
0.19
0.49
0.75
0.87
0.76
0.45
0.05
-0.29
-0.45
-0.39
-0.20
0.02
0.20
0.34
0.47
0.58
0.62
0.52
0.29
0.02
-0.14
-0.08
0.20
0.53
0.70
0.59
0.24
-0.18
-0.43
-0.40
-0.10
0.33
0.69
0.84
0.75
0.50
0.21
-0.00
-0.11
-0.13
-0.14
-0.16
-0.20
-0.19
-0.06
0.19
0.51
0.79
0.91
0.85
0.67
0.48
0.37
0.38
0.41
0.38
0.21
-0.02
-0.22
-0.27
-0.18
-0.10
-0.23
-0.67
-1.35
-1.98
-2.23
-1.93
-1.16
-0.26
0.41
0.66
0.53
0.27
0.11
0.12
0.25
0.35
0.32
0.17
-0.03
-0.22
-0.38
-0.57
-0.77
-0.94
-0.99
-0.87
-0.59
-0.28
-0.04
0.07
0.05
-0.01
-0.02
0.03
0.12
0.20
0.26
0.32
0.45
0.68
1.00
1.31
1.46
1.36
1.00
0.51
0.11
-0.07
-0.02
0.15
0.22
0.06
-0.30
-0.73
-1.03
-1.14
-1.09
-1.01
-0.97
-0.91
-0.73
-0.34
0.23
0.80
1.11
1.03
0.58
-0.04
-0.58
-0.84
-0.80
-0.55
-0.29
-0.08
0.03
0.11
0.21
0.32
0.38
0.31
0.08
-0.27
-0.63
-0.87
-0.93
-0.81
-0.57
-0.29
-0.06
0.04
-0.03
-0.29
-0.69
-1.13
-1.47
-1.63
-1.60
-1.44
-1.28
-1.19
-1.18
-1.15
-1.00
-0.65
-0.13
0.46
0.99
1.33
1.46
1.41
1.30
1.22
1.23
1.31
1.36
1.27
0.93
0.35
-0.41
-1.22
-1.97
-2.61
-3.21
-3.83
-4.54
-5.37
-6.37
-7.55
-8.95
-10.53
-12.16
-13.65
-14.89
-15.91
-16.88
-18.00
-19.35
-20.77
-21.93
-22.49
-22.34
-21.64
-20.77
-20.03
-19.50
-18.94
-17.88
-15.92
-12.86
-8.75
-3.76
1.89
8.10
14.66
21.24
27.39
32.67
36.98
40.59
44.03
47.77
51.74
55.28
57.37
57.06
54.04
48.68
41.92
34.74
27.77
21.20
14.94
8.94
3.44
-1.14
-4.38
-6.18
-6.88
-7.08
-7.31
-7.79
-8.40
-8.72
-8.50
-7.72
-6.67
-5.73
-5.23
-5.26
-5.69
-6.27
-6.76
-7.02
-7.03
-6.85
-6.64
-6.55
-6.75
-7.30
-8.18
-9.21
-10.09
-10.46
-10.08
-8.95
-7.40
-5.96
-5.19
-5.25
-5.86
-6.38
-6.19
-5.03
-3.22
-1.54
-0.76
-1.21
-2.58
-3.98
-4.41
-3.30
-0.84
2.29
5.13
7.03
7.81
7.66
6.79
5.37
3.58
2.08
2.01
4.42
9.31
14.88
18.05
15.99
7.94
-3.91
-15.16
-21.48
-20.89
-14.74
-6.92
-1.67
-1.45
-6.13
-13.60
-21.35
-27.76
-32.51
-36.04
-38.85
-41.05
-42.18
-41.64
-39.12
-34.73
-29.18
-23.30
-17.69
-12.54
-7.39
-1.90
3.85
9.12
12.95
14.93
15.83
17.42
21.59
29.25
39.51
50.06
58.08
61.58
60.07
54.48
46.41
37.29
28.01
18.99
10.57
3.25
-2.49
-6.34
-8.30
-8.70
-8.21
-7.39
-6.97
-7.41
-8.66
-10.39
-11.86
-12.43
-11.82
-10.35
-8.74
-7.74
-7.69
-8.28
-8.85
-8.72
-7.65
-5.93
-4.17
-2.91
-2.33
-2.24
-2.26
-2.16
-1.92
-1.74
-1.78
-2.03
-2.27
-2.27
-1.86
-1.14
-0.37
0.18
0.38
0.32
0.20
0.19
0.34
0.56
0.73
0.82
0.89
1.08
1.45
1.91
2.25
2.26
1.87
1.21
0.50
-0.05
-0.32
-0.31
-0.14
0.11
0.37
0.63
0.87
1.03
1.06
0.89
0.57
0.18
-0.14
-0.30
-0.33
-0.30
-0.29
-0.34
-0.42
-0.46
-0.41
-0.31
-0.22
-0.23
-0.33
-0.49
-0.58
-0.56
-0.40
-0.17
0.04
0.16
0.16
0.09
-0.02
-0.09
-0.15
-0.20
-0.33
-0.57
-0.91
-1.30
-1.62
-1.74
-1.60
-1.22
-0.68
-0.12
0.32
0.57
0.60
0.51
0.38
0.34
0.42
0.65
0.97
1.32
1.62
1.80
1.78
1.51
1.02
0.36
-0.26
-0.66
-0.71
-0.43
0.04
0.48
0.66
0.53
0.15
-0.27
-0.59
-0.74
-0.76
-0.80
-0.94
-1.21
-1.52
-1.73
-1.74
-1.51
-1.08
-0.56
-0.06
0.32
0.56
0.67
0.71
0.78
0.95
1.26
1.64
1.97
2.03
1.69
0.93
-0.13
-1.21
-2.01
-2.32
-2.12
-1.54
-0.85
-0.28
0.04
0.12
0.04
-0.11
-0.29
-0.51
-0.76
-1.02
-1.21
-1.27
-1.18
-0.98
-0.78
-0.69
-0.71
-0.84
-0.97
-1.00
-0.81
-0.39
0.19
0.77
1.13
1.20
1.08
0.99
1.03
1.10
0.91
0.21
-0.90
-1.96
-2.35
-1.80
-0.60
0.55
1.02
0.67
0.03
-0.20
0.31
1.24
1.83
1.53
0.48
-0.56
-0.74
0.19
1.66
2.67
2.51
1.24
-0.40
-1.46
-1.51
-0.80
-0.04
0.14
-0.43
-1.39
-2.21
-2.56
-2.48
-2.31
-2.35
-2.70
-3.15
-3.40
-3.22
-2.61
-1.81
-1.12
-0.74
-0.67
-0.70
-0.53
0.07
1.10
2.37
3.56
4.42
4.85
4.97
4.97
4.99
5.07
5.08
4.89
4.45
3.83
3.13
2.49
1.95
1.53
1.24
1.10
1.14
1.33
1.58
1.72
1.61
1.28
0.83
0.43
0.19
0.10
0.07
0.01
-0.07
-0.14
-0.15
-0.12
-0.15
-0.31
-0.64
-1.04
-1.36
-1.48
-1.42
-1.30
-1.27
-1.41
-1.66
-1.90
-2.00
-1.87
-1.55
-1.15
-0.76
-0.42
-0.11
0.22
0.56
0.90
1.14
1.19
0.99
0.58
0.05
-0.44
-0.77
-0.88
-0.84
-0.78
-0.86
-1.17
-1.71
-2.34
-2.87
-3.13
-3.08
-2.79
-2.42
-2.12
-1.97
-1.93
-1.92
-1.84
-1.67
-1.48
-1.33
-1.26
-1.24
-1.14
-0.87
-0.39
0.21
0.83
1.35
1.71
1.97
2.15
2.30
2.39
2.42
2.37
2.25
2.07
1.85
1.58
1.23
0.84
0.46
0.19
0.08
0.09
0.13
0.00
-0.33
-0.78
-1.12
-1.15
-0.85
-0.41
-0.13
-0.16
-0.43
-0.63
-0.54
-0.12
0.40
0.75
0.82
0.68
0.58
0.68
0.93
1.17
1.25
1.15
1.01
0.97
1.01
1.02
0.86
0.50
0.08
-0.19
-0.20
0.05
0.35
0.48
0.32
-0.08
-0.52
-0.73
-0.50
0.22
1.26
2.29
2.92
2.95
2.39
1.58
1.02
1.14
2.13
3.81
5.68
7.10
7.59
7.05
5.90
4.84
4.64
5.65
7.85
10.75
13.69
16.10
17.46
17.36
15.37
11.23
5.16
-1.72
-7.68
-11.18
-11.94
-11.45
-12.42
-17.36
-27.10
-40.03
-52.82
-61.93
-65.31
-63.06
-56.94
-49.07
-40.92
-32.94
-25.02
-17.25
-10.21
-4.76
-1.46
-0.27
-0.27
-0.11
1.56
5.55
11.70
18.98
25.88
31.10
34.12
35.40
36.20
37.89
41.22
45.89
50.63
53.80
54.11
51.11
45.29
37.72
29.56
21.65
14.40
7.95
2.27
-2.60
-6.58
-9.54
-11.37
-12.07
-11.87
-11.31
-10.95
-11.20
-12.11
-13.20
-13.83
-13.61
-12.58
-11.29
-10.40
-10.25
-10.64
-11.00
-10.79
-9.88
-8.59
-7.44
-6.75
-6.42
-6.05
-5.24
-3.95
-2.51
-1.40
-0.90
-0.90
-0.99
-0.81
-0.28
0.36
0.69
0.53
-0.01
-0.53
-0.70
-0.43
0.10
0.59
0.92
1.19
1.62
2.31
3.10
3.67
3.77
3.36
2.66
1.97
1.47
1.15
0.86
0.54
0.23
0.07
0.17
0.46
0.76
0.84
0.62
0.16
-0.37
-0.80
-1.05
-1.18
-1.29
-1.50
-1.86
-2.31
-2.72
-2.94
-2.86
-2.50
-2.00
-1.50
-1.14
-0.91
-0.75
-0.57
-0.38
-0.24
-0.22
-0.31
-0.42
-0.40
-0.20
0.12
0.41
0.53
0.49
0.39
0.40
0.59
0.91
1.19
1.27
1.02
0.49
-0.16
-0.78
-1.21
-1.42
-1.42
-1.27
-1.07
-0.88
-0.75
-0.69
-0.71
-0.79
-0.87
-0.88
-0.77
-0.52
-0.18
0.17
0.47
0.65
0.75
0.79
0.81
0.82
0.83
0.86
0.96
1.18
1.55
2.00
2.41
2.64
2.66
2.54
2.42
2.40
2.52
2.67
2.69
2.45
1.95
1.27
0.59
0.03
-0.39
-0.71
-1.00
-1.26
-1.44
-1.44
-1.21
-0.84
-0.46
-0.18
-0.05
-0.06
-0.15
-0.30
-0.52
-0.81
-1.12
-1.34
-1.36
-1.13
-0.77
-0.42
-0.25
-0.33
-0.57
-0.83
-0.96
-0.90
-0.69
-0.42
-0.17
0.03
0.15
0.20
0.18
0.05
-0.13
-0.33
-0.47
-0.50
-0.46
-0.45
-0.54
-0.77
-1.05
-1.23
-1.14
-0.73
-0.10
0.56
1.01
1.18
1.09
0.84
0.57
0.37
0.29
0.34
0.54
0.88
1.30
1.65
1.78
1.59
1.09
0.45
-0.09
-0.34
-0.26
0.07
0.45
0.66
0.60
0.29
-0.11
-0.39
-0.41
-0.22
-0.00
0.02
-0.22
-0.61
-0.88
-0.79
-0.33
0.25
0.57
0.38
-0.29
-1.12
-1.71
-1.85
-1.54
-1.04
-0.56
-0.22
-0.03
0.11
0.18
0.15
-0.07
-0.47
-0.95
-1.32
-1.47
-1.38
-1.17
-0.98
-0.92
-1.00
-1.14
-1.26
-1.25
-1.07
-0.73
-0.29
0.17
0.51
0.63
0.51
0.23
-0.05
-0.16
0.00
0.44
1.04
1.63
2.03
2.17
2.02
1.64
1.10
0.50
-0.09
-0.61
-0.98
-1.20
-1.27
-1.20
-1.04
-0.78
-0.47
-0.18
-0.01
-0.02
-0.17
-0.37
-0.46
-0.28
0.19
0.87
1.55
2.01
2.09
1.76
1.15
0.49
0.04
-0.03
0.29
0.86
1.38
1.58
1.36
0.84
0.30
0.06
0.25
0.81
1.51
2.10
2.51
2.78
3.04
3.40
3.77
3.96
3.85
3.43
2.89
2.47
2.33
2.46
2.68
2.76
2.60
2.26
1.93
1.76
1.83
2.10
2.46
2.79
3.07
3.29
3.47
3.58
3.53
3.23
2.60
1.69
0.67
-0.26
-0.87
-1.07
-0.95
-0.67
-0.45
-0.41
-0.54
-0.75
-0.90
-0.92
-0.82
-0.68
-0.58
-0.57
-0.63
-0.71
-0.83
-1.02
-1.35
-1.81
-2.31
-2.70
-2.85
-2.76
-2.59
-2.58
-2.92
-3.64
-4.56
-5.45
-6.10
-6.50
-6.79
-7.14
-7.66
-8.28
-8.84
-9.21
-9.36
-9.41
-9.44
-9.43
-9.27
-8.78
-7.92
-6.82
-5.80
-5.10
-4.80
-4.78
-4.80
-4.67
-4.40
-4.14
-4.02
-4.05
-4.11
-4.08
-3.93
-3.82
-3.90
-4.22
-4.58
-4.62
-4.01
-2.65
-0.76
1.14
2.59
3.32
3.42
3.25
3.26
3.71
4.60
5.66
6.55
7.10
7.34
7.47
7.72
8.15
8.60
8.84
8.69
8.20
7.60
7.19
7.12
7.39
7.79
8.08
8.08
7.77
7.25
6.70
6.26
6.00
5.88
5.77
5.59
5.34
5.09
4.99
5.10
5.33
5.51
5.43
5.01
4.33
3.58
2.95
2.55
2.30
2.09
1.80
1.36
0.76
-0.00
-0.94
-2.07
-3.36
-4.72
-5.99
-7.00
-7.63
-7.90
-7.91
-7.80
-7.69
-7.64
-7.61
-7.55
-7.40
-7.13
-6.76
-6.31
-5.82
-5.30
-4.77
-4.24
-3.72
-3.18
-2.63
-2.08
-1.64
-1.44
-1.55
-2.00
-2.66
-3.32
-3.80
-4.03
-4.04
-3.97
-3.94
-3.94
-3.88
-3.66
-3.31
-2.92
-2.61
-2.45
-2.32
-2.05
-1.45
-0.47
0.77
2.03
3.14
3.99
4.62
5.10
5.48
5.77
5.94
6.02
6.08
6.16
6.29
6.39
6.38
6.19
5.80
5.24
4.52
3.68
2.70
1.65
0.67
-0.05
-0.37
-0.29
0.01
0.28
0.34
0.14
-0.18
-0.43
-0.47
-0.34
-0.19
-0.18
-0.38
-0.67
-0.90
-0.92
-0.73
-0.45
-0.22
-0.10
-0.06
0.02
0.20
0.45
0.62
0.62
0.39
0.07
-0.17
-0.13
0.19
0.69
1.14
1.29
1.05
0.46
-0.27
-0.90
-1.22
-1.20
-0.95
-0.66
-0.50
-0.53
-0.71
-0.91
-1.04
-1.10
-1.09
-1.07
-1.01
-0.85
-0.54
-0.10
0.42
0.90
1.29
1.58
1.81
2.02
2.18
2.19
2.00
1.61
1.12
0.69
0.43
0.36
0.40
0.40
0.22
-0.17
-0.69
-1.17
-1.45
-1.43
-1.16
-0.79
-0.51
-0.41
-0.52
-0.73
-0.91
-0.97
-0.90
-0.76
-0.64
-0.55
-0.49
-0.43
-0.37
-0.32
-0.31
-0.34
-0.39
-0.45
-0.53
-0.64
-0.78
-0.92
-1.03
-1.10
-1.20
-1.43
-1.90
-2.60
-3.37
-4.01
-4.36
-4.39
-4.28
-4.26
-4.50
-4.99
-5.56
-5.99
-6.13
-6.02
-5.79
-5.62
-5.56
-5.60
-5.67
-5.72
-5.79
-5.89
-6.00
-6.01
-5.81
-5.33
-4.66
-3.95
-3.37
-2.98
-2.69
-2.35
-1.79
-0.98
0.07
1.26
2.52
3.79
5.10
6.50
8.08
9.94
12.14
14.66
17.37
20.04
22.46
24.56
26.39
28.13
29.83
31.45
32.71
33.28
32.94
31.75
30.04
28.31
27.02
26.46
26.58
27.02
27.23
26.56
24.50
20.75
15.29
8.55
1.28
-5.65
-11.58
-16.36
-20.48
-24.85
-30.33
-37.26
-45.13
-52.69
-58.43
-61.15
-60.37
-56.39
-50.05
-42.30
-33.90
-25.32
-16.90
-8.99
-2.03
3.47
7.16
9.03
9.51
9.23
8.85
8.59
8.25
7.43
5.83
3.63
1.38
-0.29
-1.08
-1.20
-1.17
-1.38
-1.78
-1.97
-1.57
-0.62
0.36
0.71
0.19
-0.83
-1.54
-1.26
0.08
1.85
3.17
3.43
2.71
1.60
0.79
0.64
1.01
1.51
1.81
1.87
1.90
2.13
2.61
3.19
3.62
3.75
3.59
3.35
3.24
3.35
3.64
3.85
3.76
3.24
2.37
1.39
0.54
0.02
-0.17
-0.09
0.12
0.40
0.70
0.97
1.13
1.05
0.70
0.17
-0.39
-0.76
-0.87
-0.73
-0.51
-0.34
-0.29
-0.30
-0.24
-0.03
0.29
0.57
0.62
0.35
-0.15
-0.70
-1.05
-1.11
-0.93
-0.71
-0.60
-0.68
-0.87
-1.01
-1.01
-0.88
-0.75
-0.74
-0.93
-1.24
-1.58
-1.83
-1.90
-1.78
-1.44
-0.91
-0.23
0.47
1.03
1.31
1.28
1.03
0.76
0.66
0.87
1.38
2.05
2.69
3.12
3.19
2.92
2.39
1.74
1.09
0.54
0.07
-0.31
-0.64
-0.89
-0.99
-0.88
-0.55
-0.08
0.41
0.77
0.94
0.95
0.89
0.84
0.85
0.83
0.71
0.47
0.16
-0.14
-0.38
-0.60
-0.86
-1.17
-1.43
-1.50
-1.27
-0.77
-0.18
0.23
0.34
0.16
-0.06
-0.10
0.15
0.62
1.11
1.44
1.53
1.51
1.54
1.76
2.19
2.69
3.06
3.10
2.75
2.08
1.31
0.63
0.18
-0.05
-0.16
-0.27
-0.45
-0.71
-1.04
-1.39
-1.72
-2.02
-2.22
-2.29
-2.19
-1.94
-1.61
-1.30
-1.09
-1.03
-1.08
-1.16
-1.18
-1.13
-1.00
-0.81
-0.59
-0.34
-0.05
0.24
0.51
0.73
0.89
1.00
1.10
1.15
1.12
0.96
0.64
0.24
-0.12
-0.31
-0.31
-0.22
-0.20
-0.36
-0.70
-1.10
-1.38
-1.40
-1.15
-0.76
-0.35
-0.06
0.12
0.24
0.39
0.63
0.97
1.34
1.65
1.82
1.80
1.63
1.39
1.17
1.05
1.05
1.11
1.16
1.11
0.90
0.52
0.01
-0.52
-0.96
-1.27
-1.44
-1.51
-1.51
-1.45
-1.33
-1.18
-1.04
-0.98
-1.06
-1.24
-1.42
-1.46
-1.32
-1.03
-0.71
-0.46
-0.34
-0.33
-0.36
-0.36
-0.33
-0.29
-0.29
-0.33
-0.37
-0.38
-0.34
-0.29
-0.25
-0.24
-0.24
-0.20
-0.13
0.00
0.14
0.25
0.30
0.30
0.26
0.19
0.12
0.06
0.04
0.07
0.18
0.36
0.56
0.72
0.80
0.79
0.69
0.56
0.41
0.30
0.28
0.38
0.57
0.81
1.01
1.11
1.10
1.02
0.95
0.91
0.94
1.05
1.22
1.49
1.83
2.19
2.45
2.48
2.20
1.65
0.98
0.35
-0.15
-0.54
-0.93
-1.39
-1.94
-2.45
-2.83
-3.00
-3.00
-2.90
-2.76
-2.52
-2.07
-1.35
-0.40
0.50
1.05
1.03
0.46
-0.41
-1.20
-1.59
-1.44
-0.88
-0.15
0.45
0.75
0.70
0.40
0.01
-0.29
-0.40
-0.28
-0.01
0.31
0.51
0.50
0.26
-0.07
-0.32
-0.36
-0.16
0.18
0.48
0.63
0.61
0.54
0.56
0.77
1.13
1.45
1.54
1.27
0.68
-0.01
-0.54
-0.69
-0.45
0.01
0.42
0.56
0.40
0.05
-0.25
-0.32
-0.13
0.22
0.55
0.76
0.82
0.79
0.76
0.73
0.68
0.51
0.17
-0.33
-0.91
-1.42
-1.76
-1.86
-1.76
-1.53
-1.30
-1.15
-1.12
-1.19
-1.33
-1.47
-1.56
-1.60
-1.58
-1.59
-1.66
-1.83
-2.04
-2.22
-2.26
-2.16
-1.98
-1.82
-1.72
-1.67
-1.56
-1.30
-0.90
-0.46
-0.15
-0.07
-0.23
-0.53
-0.81
-1.01
-1.15
-1.31
-1.58
-1.97
-2.45
-2.96
-3.50
-4.10
-4.86
-5.81
-6.87
-7.84
-8.47
-8.57
-8.13
-7.37
-6.59
-6.08
-5.94
-6.08
-6.29
-6.36
-6.11
-5.52
-4.64
-3.59
-2.48
-1.39
-0.37
0.57
1.49
2.53
3.84
5.55
7.68
10.08
12.46
14.57
16.23
17.45
18.41
19.29
20.20
21.07
21.71
21.95
21.76
21.24
20.56
19.78
18.87
17.68
16.13
14.22
12.11
9.99
8.01
6.19
4.45
2.68
0.77
-1.27
-3.40
-5.49
-7.39
-8.95
-10.09
-10.81
-11.15
-11.24
-11.11
-10.83
-10.41
-9.92
-9.47
-9.20
-9.11
-9.12
-9.00
-8.55
-7.71
-6.56
-5.35
-4.33
-3.67
-3.38
-3.34
-3.38
-3.35
-3.16
-2.81
-2.39
-1.98
-1.63
-1.34
-1.08
-0.84
-0.62
-0.48
-0.50
-0.67
-0.90
-1.08
-1.09
-0.95
-0.74
-0.58
-0.53
-0.54
-0.50
-0.32
0.05
0.55
1.09
1.58
1.99
2.35
2.67
2.96
3.18
3.20
2.92
2.34
1.53
0.71
0.09
-0.21
-0.16
0.09
0.37
0.55
0.58
0.50
0.37
0.25
0.14
0.05
-0.03
-0.10
-0.17
-0.30
-0.55
-0.90
-1.33
-1.77
-2.16
-2.50
-2.81
-3.08
-3.28
-3.36
-3.26
-2.98
-2.58
-2.16
-1.80
-1.53
-1.34
-1.23
-1.19
-1.22
-1.31
-1.40
-1.39
-1.25
-0.95
-0.55
-0.13
0.25
0.57
0.84
1.08
1.28
1.41
1.42
1.31
1.16
1.04
0.99
0.98
0.90
0.65
0.23
-0.27
-0.69
-0.91
-0.93
-0.84
-0.75
-0.71
-0.67
-0.49
-0.11
0.44
1.00
1.34
1.29
0.81
0.05
-0.79
-1.47
-1.89
-2.00
-1.88
-1.63
-1.31
-1.01
-0.78
-0.67
-0.69
-0.85
-1.09
-1.28
-1.35
-1.21
-0.85
-0.31
0.36
1.09
1.79
2.32
2.58
2.50
2.17
1.79
1.55
1.58
1.85
2.17
2.32
2.18
1.76
1.24
0.80
0.57
0.56
0.68
0.82
0.89
0.86
0.74
0.55
0.26
-0.13
-0.62
-1.15
-1.64
-2.01
-2.16
-2.09
-1.87
-1.64
-1.52
-1.55
-1.68
-1.82
-1.88
-1.85
-1.75
-1.59
-1.36
-0.99
-0.40
0.42
1.39
2.33
3.03
3.35
3.31
3.02
2.66
2.41
2.31
2.31
2.25
1.99
1.46
0.71
-0.12
-0.86
-1.35
-1.50
-1.34
-0.92
-0.37
0.20
0.68
0.98
1.09
1.05
0.94
0.85
0.84
0.89
0.90
0.78
0.46
0.00
-0.47
-0.79
-0.85
-0.66
-0.35
-0.14
-0.17
-0.46
-0.94
-1.44
-1.81
-2.00
-2.00
-1.87
-1.67
-1.39
-1.04
-0.60
-0.14
0.29
0.61
0.75
0.76
0.70
0.68
0.73
0.84
0.90
0.83
0.59
0.24
-0.13
-0.39
-0.47
-0.38
-0.18
0.06
0.28
0.43
0.46
0.35
0.08
-0.29
-0.68
-1.02
-1.21
-1.20
-1.00
-0.62
-0.16
0.35
0.83
1.20
1.42
1.48
1.40
1.22
0.99
0.69
0.29
-0.24
-0.90
-1.56
-2.10
-2.38
-2.38
-2.19
-1.93
-1.75
-1.67
-1.62
-1.44
-1.08
-0.49
0.21
0.93
1.52
1.94
2.17
2.25
2.24
2.15
1.98
1.71
1.26
0.60
-0.25
-1.25
-2.28
-3.25
-4.07
-4.74
-5.26
-5.65
-5.95
-6.11
-6.08
-5.78
-5.13
-4.12
-2.83
-1.44
-0.11
1.04
2.04
3.02
4.22
5.78
7.66
9.64
11.36
12.55
13.05
12.99
12.66
12.41
12.46
12.80
13.19
13.22
12.43
10.55
7.65
4.09
0.51
-2.38
-4.17
-5.04
-5.80
-7.56
-11.32
-17.40
-25.28
-33.81
-41.45
-46.99
-49.75
-49.56
-46.69
-41.85
-36.23
-31.36
-28.50
-27.58
-26.84
-23.10
-13.34
3.61
25.97
49.47
68.99
80.79
83.82
79.58
70.90
60.40
49.44
38.37
27.33
16.81
7.78
1.39
-1.76
-2.00
-0.44
1.16
1.34
-0.52
-3.92
-7.59
-10.17
-10.93
-10.12
-8.67
-7.69
-7.83
-9.04
-10.81
-12.43
-13.44
-13.73
-13.45
-12.84
-12.10
-11.34
-10.65
-10.07
-9.62
-9.23
-8.75
-8.06
-7.10
-6.04
-5.05
-4.29
-3.74
-3.28
-2.77
-2.16
-1.57
-1.19
-1.14
-1.41
-1.79
-2.09
-2.23
-2.25
-2.28
-2.41
-2.53
-2.44
-1.89
-0.81
0.71
2.33
3.72
4.59
4.90
4.81
4.56
4.37
4.26
4.14
3.83
3.28
2.56
1.90
1.55
1.61
2.02
2.61
3.23
3.76
4.15
4.31
4.16
3.63
2.74
1.66
0.65
-0.05
-0.31
-0.17
0.23
0.74
1.19
1.52
1.73
1.82
1.77
1.58
1.21
0.71
0.18
-0.25
-0.45
-0.38
-0.10
0.23
0.42
0.34
-0.06
-0.71
-1.44
-2.09
-2.54
-2.72
-2.68
-2.51
-2.32
-2.15
-2.03
-1.91
-1.71
-1.41
-1.01
-0.56
-0.14
0.19
0.42
0.55
0.59
0.53
0.34
-0.01
-0.50
-1.07
-1.58
-1.90
-1.95
-1.72
-1.34
-1.01
-0.89
-1.02
-1.32
-1.64
-1.83
-1.80
-1.57
-1.19
-0.75
-0.31
0.08
0.37
0.53
0.57
0.48
0.32
0.13
-0.02
-0.08
-0.02
0.14
0.34
0.51
0.57
0.49
0.29
0.05
-0.16
-0.27
-0.30
-0.26
-0.17
-0.04
0.21
0.61
1.16
1.76
2.29
2.64
2.75
2.66
2.45
2.17
1.84
1.49
1.15
0.93
0.92
1.12
1.45
1.71
1.72
1.47
1.08
0.80
0.83
1.23
1.91
2.63
3.18
3.41
3.27
2.84
2.25
1.70
1.33
1.14
0.99
0.69
0.12
-0.64
-1.31
-1.63
-1.51
-1.17
-0.95
-1.11
-1.65
-2.29
-2.66
-2.57
-2.10
-1.57
-1.27
-1.31
-1.56
-1.77
-1.75
-1.49
-1.10
-0.69
-0.33
0.03
0.46
0.99
1.56
2.10
2.54
2.88
3.11
3.29
3.36
3.28
2.96
2.39
1.60
0.67
-0.27
-1.14
-1.85
-2.39
-2.79
-3.11
-3.47
-3.97
-4.66
-5.54
-6.56
-7.58
-8.47
-9.11
-9.35
-9.13
-8.42
-7.31
-5.98
-4.66
-3.52
-2.67
-2.08
-1.66
-1.33
-1.07
-0.87
-0.71
-0.51
-0.18
0.33
0.91
1.42
1.67
1.68
1.58
1.61
1.91
2.50
3.23
3.94
4.52
5.01
5.50
6.04
6.61
7.14
7.57
7.86
8.03
8.03
7.80
7.22
6.28
5.07
3.77
2.56
1.55
0.73
0.01
-0.66
-1.27
-1.77
-2.12
-2.30
-2.38
-2.39
-2.32
-2.09
-1.68
-1.14
-0.65
-0.41
-0.54
-0.95
-1.46
-1.83
-1.91
-1.69
-1.28
-0.85
-0.50
-0.29
-0.21
-0.27
-0.42
-0.65
-0.92
-1.21
-1.50
-1.78
-2.03
-2.16
-2.09
-1.78
-1.29
-0.72
-0.22
0.12
0.31
0.37
0.35
0.23
-0.00
-0.28
-0.49
-0.49
-0.17
0.39
1.03
1.52
1.70
1.58
1.33
1.12
1.08
1.21
1.41
1.55
1.57
1.48
1.34
1.18
1.01
0.81
0.61
0.46
0.48
0.74
1.20
1.69
2.00
1.96
1.54
0.86
0.11
-0.54
-1.03
-1.36
-1.65
-1.95
-2.32
-2.73
-3.13
-3.47
-3.69
-3.75
-3.66
-3.48
-3.27
-3.09
-2.95
-2.80
-2.57
-2.21
-1.74
-1.26
-0.88
-0.68
-0.70
-0.87
-1.09
-1.24
-1.22
-0.95
-0.41
0.31
1.07
1.70
2.09
2.26
2.29
2.31
2.41
2.59
2.81
3.03
3.27
3.54
3.85
4.11
4.21
4.04
3.61
3.01
2.39
1.85
1.45
1.16
0.96
0.85
0.83
0.85
0.87
0.78
0.52
0.09
-0.43
-0.90
-1.26
-1.51
-1.74
-2.04
-2.47
-2.97
-3.47
-3.87
-4.10
-4.16
-4.10
-4.00
-3.94
-3.99
-4.18
-4.49
-4.81
-5.01
-4.97
-4.63
-4.06
-3.39
-2.74
-2.16
-1.65
-1.16
-0.66
-0.11
0.50
1.14
1.80
2.45
3.02
3.44
3.68
3.74
3.70
3.64
3.60
3.60
3.62
3.64
3.70
3.83
4.09
4.43
4.73
4.80
4.48
3.75
2.69
1.53
0.46
-0.36
-0.89
-1.15
-1.21
-1.14
-1.00
-0.88
-0.87
-1.04
-1.46
-2.10
-2.85
-3.54
-4.03
-4.19
-4.00
-3.54
-2.96
-2.42
-2.05
-1.86
-1.79
-1.73
-1.60
-1.38
-1.11
-0.85
-0.61
-0.34
0.01
0.49
1.04
1.57
1.97
2.18
2.18
1.99
1.69
1.36
1.08
0.91
0.85
0.84
0.78
0.63
0.41
0.25
0.31
0.67
1.25
1.80
2.05
1.80
1.08
0.14
-0.66
-0.99
-0.70
0.07
0.98
1.61
1.70
1.27
0.57
-0.02
-0.24
-0.06
0.23
0.28
0.00
-0.35
-0.33
0.28
1.17
1.64
1.21
0.10
-0.68
-0.11
1.98
4.53
5.78
4.51
0.94
-3.30
-6.16
-6.47
-4.63
-2.15
-0.58
-0.51
-1.37
-2.08
-1.84
-0.60
1.02
2.19
2.32
1.34
-0.35
-1.93
-2.60
-1.88
0.02
2.20
3.59
3.55
2.36
0.95
0.33
0.80
1.81
2.42
2.01
0.75
-0.55
-1.07
-0.56
0.51
1.34
1.39
0.79
0.07
-0.22
0.01
0.36
0.31
-0.34
-1.31
-2.03
-2.06
-1.38
-0.41
0.30
0.46
0.16
-0.24
-0.41
-0.24
0.09
0.30
0.18
-0.26
-0.86
-1.36
-1.62
-1.59
-1.38
-1.11
-0.94
-0.91
-1.00
-1.16
-1.36
-1.59
-1.81
-1.96
-1.92
-1.56
-0.86
0.02
0.81
1.19
1.04
0.45
-0.25
-0.69
-0.64
-0.13
0.59
1.16
1.31
1.00
0.43
-0.06
-0.20
0.11
0.68
1.19
1.35
1.07
0.60
0.35
0.62
1.44
2.54
3.49
4.02
4.21
4.35
4.72
5.38
6.09
6.58
6.73
6.76
7.02
7.79
8.98
10.11
10.64
10.28
9.25
8.15
7.64
8.05
9.26
10.83
12.19
13.07
13.52
13.90
14.65
16.13
18.43
21.27
24.26
26.87
28.60
29.04
27.78
24.53
19.23
12.23
4.27
-3.57
-10.61
-17.12
-24.37
-33.99
-46.97
-62.78
-79.36
-93.77
-103.48
-107.35
-105.84
-100.41
-92.59
-83.31
-72.91
-61.54
-49.50
-37.37
-25.87
-15.32
-5.55
3.79
13.09
22.48
31.56
39.71
46.23
50.54
52.47
52.50
51.27
49.51
47.81
46.32
44.85
43.05
40.65
37.67
34.33
30.93
27.71
24.77
22.00
19.26
16.43
13.43
10.26
6.90
3.46
0.16
-2.67
-4.81
-6.23
-7.06
-7.57
-7.93
-8.21
-8.38
-8.41
-8.40
-8.51
-8.91
-9.58
-10.33
-10.84
-10.87
-10.39
-9.57
-8.66
-7.89
-7.33
-6.92
-6.52
-5.99
-5.25
-4.30
-3.22
-2.11
-1.10
-0.26
0.41
0.98
1.58
2.33
3.25
4.20
4.99
5.40
5.34
4.90
4.29
3.76
3.48
3.44
3.51
3.55
3.48
3.35
3.26
3.29
3.38
3.42
3.28
2.98
2.66
2.51
2.61
2.88
3.11
3.06
2.66
1.97
1.22
0.59
0.14
-0.17
-0.43
-0.66
-0.80
-0.75
-0.48
-0.09
0.24
0.30
0.03
-0.49
-1.08
-1.53
-1.71
-1.62
-1.31
-0.90
-0.52
-0.23
-0.09
-0.13
-0.37
-0.77
-1.27
-1.74
-2.08
-2.24
-2.23
-2.11
-1.95
-1.83
-1.75
-1.72
-1.67
-1.58
-1.43
-1.26
-1.10
-0.95
-0.78
-0.54
-0.20
0.22
0.65
1.02
1.28
1.41
1.42
1.35
1.21
1.02
0.84
0.68
0.58
0.49
0.36
0.12
-0.21
-0.56
-0.84
-0.96
-0.94
-0.83
-0.67
-0.49
-0.22
0.17
0.68
1.22
1.65
1.85
1.73
1.34
0.76
0.12
-0.43
-0.80
-0.92
-0.83
-0.60
-0.28
0.08
0.48
0.96
1.50
2.04
2.48
2.72
2.73
2.54
2.25
2.01
1.94
2.06
2.30
2.53
2.57
2.28
1.65
0.77
-0.16
-0.98
-1.59
-2.04
-2.42
-2.83
-3.25
-3.54
-3.54
-3.20
-2.63
-2.10
-1.84
-1.95
-2.29
-2.61
-2.68
-2.38
-1.78
-1.04
-0.36
0.12
0.34
0.30
0.10
-0.13
-0.27
-0.27
-0.15
-0.04
-0.06
-0.20
-0.34
-0.33
-0.09
0.30
0.65
0.71
0.43
-0.06
-0.48
-0.56
-0.18
0.53
1.28
1.76
1.80
1.43
0.89
0.39
0.07
-0.13
-0.34
-0.63
-0.95
-1.12
-0.99
-0.58
-0.09
0.21
0.16
-0.16
-0.56
-0.79
-0.71
-0.36
0.13
0.60
0.94
1.11
1.15
1.07
0.93
0.76
0.64
0.59
0.61
0.65
0.64
0.49
0.20
-0.17
-0.51
-0.74
-0.81
-0.74
-0.62
-0.49
-0.40
-0.32
-0.24
-0.14
-0.02
0.10
0.18
0.24
0.26
0.28
0.28
0.28
0.28
0.27
0.25
0.20
0.12
-0.00
-0.15
-0.25
-0.23
-0.01
0.39
0.89
1.33
1.56
1.48
1.12
0.59
0.06
-0.29
-0.40
-0.27
0.02
0.36
0.71
1.07
1.48
1.91
2.27
2.39
2.15
1.58
0.83
0.18
-0.20
-0.25
-0.09
0.07
0.05
-0.21
-0.63
-1.08
-1.40
-1.50
-1.35
-1.03
-0.68
-0.46
-0.50
-0.80
-1.29
-1.80
-2.16
-2.29
-2.21
-2.01
-1.79
-1.61
-1.46
-1.32
-1.19
-1.10
-1.07
-1.12
-1.19
-1.25
-1.22
-1.06
-0.78
-0.42
-0.09
0.15
0.26
0.25
0.21
0.23
0.38
0.66
1.03
1.37
1.57
1.59
1.47
1.29
1.17
1.17
1.27
1.38
1.39
1.19
0.78
0.26
-0.21
-0.45
-0.38
-0.06
0.36
0.66
0.72
0.54
0.25
0.02
-0.01
0.14
0.35
0.43
0.27
-0.17
-0.75
-1.31
-1.74
-2.05
-2.35
-2.75
-3.33
-3.98
-4.56
-4.86
-4.74
-4.22
-3.40
-2.46
-1.57
-0.84
-0.30
0.05
0.24
0.31
0.27
0.15
-0.03
-0.21
-0.35
-0.35
-0.21
0.04
0.31
0.50
0.59
0.64
0.80
1.15
1.67
2.19
2.56
2.67
2.57
2.44
2.46
2.68
3.03
3.32
3.39
3.22
2.94
2.73
2.68
2.72
2.64
2.29
1.65
0.86
0.11
-0.50
-0.96
-1.32
-1.68
-1.99
-2.23
-2.35
-2.34
-2.19
-1.86
-1.32
-0.56
0.32
1.12
1.65
1.83
1.77
1.68
1.73
2.00
2.43
2.88
3.31
3.71
4.14
4.70
5.38
6.13
6.79
7.15
7.05
6.50
5.69
4.96
4.62
4.74
5.12
5.37
5.13
4.31
3.08
1.81
0.79
0.18
-0.07
-0.13
-0.13
-0.21
-0.45
-0.97
-1.82
-2.98
-4.32
-5.61
-6.57
-7.07
-7.11
-6.89
-6.68
-6.69
-6.98
-7.44
-7.84
-8.03
-7.98
-7.82
-7.70
-7.69
-7.72
-7.68
-7.48
-7.12
-6.74
-6.46
-6.34
-6.29
-6.14
-5.78
-5.27
-4.75
-4.41
-4.37
-4.67
-5.23
-5.96
-6.72
-7.36
-7.84
-8.24
-8.75
-9.74
-11.54
-14.29
-17.79
-21.42
-24.55
-26.92
-28.76
-30.78
-33.82
-38.37
-44.20
-50.41
-55.57
-58.67
-59.81
-60.13
-61.35
-65.03
-71.85
-81.22
-91.54
-100.48
-106.22
-108.33
-107.34
-104.26
-100.13
-95.55
-90.47
-84.28
-75.08
-60.74
-39.50
-9.81
28.79
74.52
122.76
166.69
199.75
219.17
229.57
237.68
249.47
266.77
285.96
299.26
297.99
272.47
219.98
143.97
51.44
-49.48
-152.00
-251.39
-344.05
-426.55
-495.54
-546.83
-577.28
-586.32
-575.82
-549.85
-513.34
-470.63
-424.43
-375.35
-322.36
-264.50
-202.18
-137.15
-72.68
-12.63
39.89
83.64
119.82
151.73
183.37
217.90
257.60
303.18
353.81
407.01
458.45
502.39
532.70
545.32
540.34
523.78
504.87
492.02
488.71
491.86
494.23
488.17
470.85
440.87
402.85
362.78
324.11
286.14
245.28
198.38
143.58
81.93
16.15
-48.98
-107.84
-154.06
-181.44
-185.92
-167.16
-131.55
-86.59
-42.72
-7.34
17.01
32.36
42.81
46.70
46.99
40.35
22.06
-10.98
-57.13
-110.55
-162.59
-203.99
-226.90
-225.79
-199.91
-151.95
-88.64
-18.90
46.03
95.74
123.38
127.38
111.47
81.10
42.22
-0.25
-42.26
-80.35
-111.57
-134.16
-148.08
-154.56
-156.07
-154.85
-152.78
-151.91
-155.75
-167.96
-191.06
-224.90
-265.50
-306.07
-338.41
-355.66
-354.31
-331.94
-290.73
-235.19
-170.60
-102.14
-35.06
25.59
75.13
109.98
129.04
134.32
131.08
127.07
130.07
145.16
172.45
206.66
238.14
257.20
257.56
238.87
206.11
166.59
126.63
89.63
56.29
26.13
-0.56
-22.81
-39.28
-49.35
-53.92
-55.21
-56.07
-58.74
-64.15
-71.57
-79.55
-86.52
-91.62
-95.12
-98.24
-102.51
-109.08
-118.32
-129.76
-142.56
-155.93
-169.40
-183.10
-197.49
-212.90
-229.15
-245.31
-259.79
-270.73
-276.79
-276.67
-269.58
-255.35
-234.36
-207.42
-175.65
-140.42
-103.30
-65.96
-29.96
3.26
32.60
57.39
77.43
92.88
104.13
111.56
115.51
116.32
114.37
110.12
104.26
97.65
91.28
86.02
82.45
80.77
80.89
82.53
85.44
89.50
94.80
101.42
109.23
117.69
125.94
132.97
137.93
140.47
140.90
140.14
139.47
140.33
144.05
151.58
163.09
177.62
193.16
206.67
215.27
217.03
211.47
199.58
183.25
164.63
145.62
127.84
112.58
100.84
93.02
88.62
86.34
84.46
81.40
76.26
69.03
60.22
50.79
41.88
34.77
30.41
28.75
27.79
23.44
10.53
-15.26
-55.10
-105.89
-160.86
-211.83
-251.80
-276.96
-286.97
-283.85
-270.32
-248.66
-220.58
-187.77
-152.46
-117.37
-85.12
-57.50
-35.06
-17.19
-2.60
9.94
21.03
30.53
37.78
42.07
43.15
41.42
37.85
33.59
29.62
26.38
23.78
21.36
18.62
15.28
11.41
7.41
3.74
0.79
-1.31
-2.73
-3.76
-4.72
-5.81
-7.04
-8.30
-9.41
-10.23
-10.72
-10.92
-10.97
-10.96
-10.97
-11.02
-11.10
-11.18
-11.22
-11.20
-11.13
-10.99
-10.80
-10.56
-10.28
-9.94
-9.57
-9.16
-8.74
-8.30
-7.82
-7.33
-6.84
-6.36
-5.90
-5.46
-5.05
-4.66
-4.30
-3.96
-3.65
-3.37
-3.11
-2.88
-2.67
-2.47
-2.29
-2.13
-1.98
-1.84
-1.72
-1.62
-1.52
-1.43
-1.34
-1.27
-1.19
-1.12
-1.07
-1.01
-0.96
-0.92
-0.88
-0.83
-0.80
-0.76
-0.73
-0.70
-0.67
-0.64
-0.62
-0.60
-0.57
-0.56
-0.53
-0.52
-0.50
-0.48
-0.47
-0.45
-0.44
-0.42
-0.41
-0.40
-0.39
-0.38
-0.36
-0.35
-0.34
-0.33
-0.32
-0.32
-0.30
-0.30
-0.29
-0.28
-0.27
-0.27
-0.26
-0.25
-0.25
-0.24
-0.23
-0.23
-0.22
-0.22
-0.21
-0.20
-0.20
-0.20
-0.19
-0.19
-0.19
-0.17
-0.18
-0.17
-0.17
-0.16
-0.16
-0.15
-0.15
-0.15
-0.14
-0.14
-0.15
-0.15
-0.16
-0.17
-0.19
-0.21
-0.23
-0.24
-0.25
-0.24
-0.22
-0.19
-0.13
-0.07
-0.00
0.08
0.17
0.25
0.33
0.41
0.49
0.55
0.62
0.68
0.75
0.81
0.89
0.96
1.04
1.12
1.21
1.31
1.42
1.54
1.69
1.86
2.05
2.28
2.57
2.90
3.26
3.64
4.00
4.34
4.69
5.10
5.58
6.23
7.01
7.92
8.89
9.87
10.85
11.82
12.87
13.97
15.23
16.64
18.18
19.86
21.64
23.67
26.16
29.43
33.66
38.97
45.16
51.70
57.78
62.45
64.82
64.30
60.68
54.11
44.95
33.58
20.36
5.76
-9.76
-25.48
-40.37
-53.19
-62.86
-68.79
-71.21
-71.31
-70.27
-69.54
-69.99
-71.59
-73.57
-74.87
-74.76
-73.10
-70.53
-67.94
-66.34
-66.47
-68.73
-73.28
-79.51
-85.62
-88.46
-84.35
-70.57
-47.19
-17.59
12.42
36.86
52.00
57.61
56.39
52.10
47.59
43.79
40.26
36.25
31.78
27.73
25.16
24.51
25.18
25.93
25.45
23.05
19.01
14.36
10.29
7.67
6.62
6.54
6.48
5.54
3.29
-0.07
-3.87
-7.33
-9.89
-11.50
-12.50
-13.51
-15.10
-17.60
-21.04
-25.19
-29.77
-34.44
-39.07
-43.51
-47.52
-50.72
-52.47
-52.16
-49.04
-42.70
-33.05
-20.60
-6.24
8.85
23.33
36.01
45.88
52.27
54.94
54.21
50.62
44.97
38.20
31.22
24.88
19.81
16.42
14.77
14.83
16.27
18.63
21.44
24.19
26.52
28.21
29.03
28.85
27.75
25.63
22.44
18.12
12.54
5.56
-2.87
-12.92
-25.65
-40.08
-55.62
-71.63
-87.36
-101.78
-114.37
-124.30
-130.85
-133.55
-131.71
-125.45
-115.34
-102.28
-87.45
-72.30
-58.15
-46.35
-38.09
-33.51
-32.91
-36.18
-42.99
-52.72
-64.71
-78.19
-92.52
-107.28
-121.30
-134.06
-145.23
-154.60
-162.04
-167.31
-169.78
-168.12
-166.08
-164.59
-164.06
-164.48
-165.52
-166.69
-167.45
-167.19
-165.51
-162.26
-156.66
-148.51
-137.88
-125.12
-110.79
-95.59
-80.26
-65.62
-52.45
-40.85
-30.99
-22.93
-16.66
-12.07
-9.02
-7.30
-6.73
-7.20
-8.24
-9.58
-11.02
-12.37
-13.47
-14.15
-14.24
-13.61
-12.23
-9.96
-6.73
-2.67
2.08
7.36
12.97
18.68
24.21
29.20
33.41
36.52
38.75
40.27
41.21
41.73
42.10
42.73
44.06
46.45
49.89
54.62
60.58
67.51
75.03
82.85
90.81
98.67
106.16
112.91
119.54
126.73
135.05
145.03
157.35
172.67
191.21
212.44
235.16
260.26
288.01
317.69
348.20
379.06
410.68
443.68
478.22
513.64
553.51
599.04
648.00
695.77
738.32
774.38
805.50
834.64
864.02
900.89
945.32
988.76
1017.98
1022.50
999.95
955.81
899.36
838.98
789.11
755.07
732.07
709.37
677.80
633.87
578.50
513.73
377.78
149.85
-146.58
-456.29
-727.62
-934.93
-1076.69
-1163.64
-1209.27
-1224.77
-1207.60
-1157.18
-1079.82
-988.77
-898.55
-819.24
-754.38
-701.92
-656.95
-607.34
-547.59
-481.63
-419.78
-371.46
-339.47
-320.93
-310.10
-301.67
-287.78
-265.10
-235.51
-204.11
-175.58
-152.16
-134.09
-120.60
-110.77
-101.45
-90.64
-78.32
-65.82
-54.03
-42.44
-29.71
-14.48
3.08
21.55
37.52
45.37
40.48
20.35
-11.88
-47.84
-76.83
-90.16
-85.62
-63.48
-25.56
24.71
81.77
135.57
172.47
179.49
149.17
83.36
-5.97
-100.35
-179.75
-225.48
-229.39
-197.42
-144.68
-87.16
-36.12
2.86
28.49
38.88
32.03
8.52
-27.22
-66.69
-99.21
-114.54
-107.33
-79.18
-37.71
6.83
45.80
73.59
87.88
88.70
77.53
56.97
31.46
7.83
-4.98
2.48
34.70
88.29
152.25
211.74
253.44
270.19
262.29
228.39
174.20
109.67
44.48
-16.17
-71.51
-120.98
-160.56
-183.01
-181.06
-151.24
-98.39
-35.02
23.56
65.61
87.54
93.82
92.93
92.34
96.10
103.32
110.21
113.08
110.01
101.07
86.24
64.70
35.68
0.53
-37.52
-74.13
-106.05
-132.58
-153.81
-170.35
-181.85
-186.20
-179.99
-160.99
-130.20
-91.01
-51.82
-19.61
2.30
14.78
21.41
26.05
30.58
34.57
36.48
35.22
31.92
29.07
28.96
32.45
38.61
45.22
49.90
51.26
49.27
45.58
42.69
42.89
47.43
55.62
64.59
69.98
67.41
54.33
31.66
3.67
-23.88
-46.07
-60.65
-68.22
-70.86
-70.33
-67.21
-61.65
-53.63
-44.75
-37.80
-35.27
-37.72
-43.35
-48.89
-51.16
-49.18
-44.11
-38.27
-33.69
-31.07
-29.83
-28.91
-27.72
-26.62
-26.62
-28.28
-31.19
-33.17
-31.34
-23.40
-8.93
10.12
30.36
48.38
62.13
71.05
75.42
75.47
71.25
63.31
53.28
43.84
37.49
35.04
34.88
33.63
27.77
15.66
-1.72
-20.97
-37.70
-48.29
-51.11
-46.53
-36.55
-24.18
-12.34
-2.94
3.28
6.73
8.13
8.00
6.44
3.37
-0.91
-5.40
-8.48
-8.81
-5.76
0.07
7.18
13.74
18.20
19.77
18.44
14.77
9.64
3.96
-1.35
-5.38
-7.42
-7.19
-4.97
-1.63
1.69
4.04
5.04
4.99
4.44
3.86
3.39
2.93
2.56
2.68
3.76
5.99
8.81
11.04
11.51
9.83
6.89
4.65
5.17
9.49
17.02
25.72
33.07
37.15
37.45
34.91
31.32
28.34
26.86
26.76
27.05
26.19
22.65
15.02
2.41
-14.91
-35.22
-55.45
-71.93
-81.60
-83.18
-77.53
-67.32
-55.90
-46.09
-39.59
-36.82
-37.33
-40.05
-43.51
-45.95
-45.72
-41.70
-33.92
-23.51
-12.52
-3.03
3.62
7.46
9.54
11.43
14.47
19.44
26.38
34.54
42.78
49.82
54.73
57.29
58.01
57.97
58.44
60.18
62.54
63.47
60.21
50.75
35.01
14.93
-6.10
-24.53
-38.00
-46.29
-50.84
-53.91
-57.54
-63.16
-71.73
-83.44
-97.02
-106.07
-103.08
-83.35
-49.55
-11.30
20.01
36.85
38.53
30.93
21.48
15.11
13.14
13.88
14.86
14.73
13.93
13.96
15.81
19.24
22.75
24.67
24.13
21.65
18.68
16.71
16.39
17.53
19.56
22.30
26.35
32.52
40.71
49.04
54.06
51.96
40.19
18.50
-10.60
-42.20
-70.10
-88.09
-91.01
-75.90
-43.27
2.00
50.55
90.99
113.58
113.43
91.79
54.88
11.21
-31.58
-65.89
-87.83
-98.71
-102.92
-104.15
-103.00
-97.39
-84.39
-62.28
-32.07
1.79
32.86
55.27
65.86
64.74
54.17
36.61
13.54
-13.97
-43.94
-72.00
-91.07
-94.22
-78.44
-46.82
-7.80
28.35
53.06
62.51
59.46
50.41
41.52
35.98
33.71
32.97
32.18
30.88
29.58
29.04
29.49
30.52
31.28
31.18
30.18
28.80
27.84
27.99
29.46
31.76
33.99
35.17
34.96
33.87
33.03
33.78
36.72
41.17
45.09
45.74
40.95
30.06
14.20
-4.25
-22.46
-38.08
-49.55
-56.34
-58.80
-58.00
-55.50
-52.97
-51.65
-51.86
-52.87
-53.32
-51.98
-48.29
-42.62
-35.75
-28.60
-21.57
-14.87
-8.66
-3.27
0.96
3.84
5.56
6.53
7.14
7.61
7.99
8.31
8.69
9.27
9.98
10.39
9.89
8.10
5.25
2.33
0.68
1.28
4.06
7.83
10.86
11.75
10.10
6.66
2.88
0.14
-0.76
0.14
2.21
4.56
6.45
7.39
7.20
6.06
4.36
2.63
1.34
0.74
0.68
0.60
-0.32
-2.95
-7.78
-14.45
-21.28
-25.56
-24.50
-16.70
-3.11
12.87
26.66
34.53
35.21
30.27
23.03
16.65
12.68
10.67
9.05
6.50
2.89
-0.74
-3.01
-3.05
-1.01
2.09
4.87
6.12
5.27
2.53
-1.29
-5.01
-7.45
-7.90
-6.31
-3.49
-0.74
0.66
0.08
-2.21
-5.15
-7.36
-7.81
-6.25
-3.31
-0.18
1.95
2.32
1.04
-0.95
-2.15
-1.34
1.81
6.38
10.38
11.63
8.49
0.48
-11.67
-26.23
-40.58
-51.47
-55.60
-50.52
-35.87
-14.03
10.14
30.82
43.27
45.49
38.68
26.27
12.21
-0.43
-10.04
-16.15
-18.80
-18.10
-14.41
-8.60
-2.10
3.26
5.97
5.32
1.70
-3.55
-8.63
-11.98
-12.77
-11.11
-7.87
-4.24
-1.30
0.47
1.20
1.56
2.28
3.83
6.20
8.96
11.53
13.47
14.61
15.02
14.91
14.55
14.15
13.73
13.03
11.55
8.72
4.30
-1.25
-6.83
-11.03
-12.70
-11.54
-8.24
-4.07
-0.33
2.33
3.90
4.70
4.94
4.47
2.91
0.06
-3.83
-7.92
-11.12
-12.48
-11.62
-8.85
-5.12
-1.62
0.71
1.44
0.81
-0.42
-1.38
-1.45
-0.62
0.60
1.39
1.10
-0.38
-2.68
-5.05
-6.80
-7.57
-7.30
-6.23
-4.61
-2.61
-0.36
1.93
3.86
4.93
4.78
3.46
1.52
-0.06
-0.34
1.07
3.79
6.82
8.94
9.39
8.13
5.82
3.44
1.88
1.57
2.37
3.83
5.29
6.13
6.01
4.94
3.23
1.41
-0.04
-0.82
-0.94
-0.60
-0.08
0.46
0.94
1.30
1.41
1.14
0.40
-0.76
-2.10
-3.35
-4.36
-5.16
-5.88
-6.59
-7.08
-6.99
-5.95
-3.87
-1.11
1.69
3.77
4.63
4.27
3.00
1.35
-0.21
-1.42
-2.17
-2.51
-2.49
-2.15
-1.53
-0.81
-0.19
0.04
-0.36
-1.38
-2.70
-3.68
-3.66
-2.26
0.31
3.32
5.74
6.81
6.27
4.53
2.41
0.73
-0.07
-0.10
0.21
0.34
0.10
-0.36
-0.67
-0.56
-0.06
0.48
0.56
-0.09
-1.28
-2.45
-2.85
-2.07
-0.22
2.00
3.61
3.87
2.52
-0.01
-2.89
-5.16
-6.15
-5.59
-3.67
-0.92
2.05
4.61
6.28
6.79
6.07
4.36
2.15
0.05
-1.36
-1.79
-1.26
-0.04
1.39
2.59
3.23
3.15
2.45
1.46
0.64
0.34
0.61
1.13
1.32
0.71
-0.76
-2.66
-4.25
-4.93
-4.54
-3.36
-1.84
-0.27
1.29
2.90
4.43
5.41
5.23
3.59
0.81
-2.18
-4.22
-4.61
-3.39
-1.35
0.43
1.10
0.49
-0.98
-2.58
-3.71
-4.13
-3.93
-3.31
-2.40
-1.21
0.26
1.83
3.13
3.78
3.54
2.55
1.20
-0.04
-0.83
-1.07
-0.90
-0.57
-0.21
0.10
0.40
0.63
0.66
0.28
-0.60
-1.84
-3.08
-3.76
-3.50
-2.21
-0.21
1.83
3.13
3.15
1.74
-0.84
-3.97
-6.90
-8.86
-9.27
-7.81
-4.61
-0.38
3.83
6.90
7.99
6.88
4.03
0.37
-3.03
-5.33
-6.19
-5.72
-4.35
-2.60
-0.80
0.95
2.68
4.36
5.83
6.77
6.84
5.88
3.97
1.49
-1.00
-2.97
-4.07
-4.29
-3.95
-3.58
-3.71
-4.54
-5.76
-6.61
-6.34
-4.56
-1.56
1.74
4.22
4.99
3.90
1.64
-0.48
-1.07
0.89
5.47
11.60
17.12
19.30
15.75
5.86
-8.32
-22.52
-31.18
-29.62
-16.04
7.22
34.30
57.67
71.02
71.35
57.95
32.88
0.29
-34.40
-65.55
-88.51
-100.73
-103.77
-99.62
-90.41
-77.75
-62.51
-45.18
-26.31
-5.77
15.26
34.81
50.98
62.48
70.24
77.32
87.14
101.52
119.29
135.87
144.66
140.93
121.30
86.52
41.76
-5.59
-48.47
-82.69
-108.43
-128.08
-145.74
-164.71
-186.06
-205.01
-214.41
-208.46
-185.26
-147.16
-98.75
-43.59
14.50
72.12
125.05
166.68
189.20
186.68
158.21
109.62
52.19
-0.95
-38.40
-53.43
-45.22
-17.79
21.92
65.59
105.04
133.59
147.18
144.91
128.61
101.37
65.53
25.60
-12.50
-43.23
-64.17
-77.49
-88.29
-100.48
-114.18
-124.32
-123.72
-107.99
-78.28
-41.08
-4.82
24.53
45.61
61.03
74.13
86.63
96.59
100.36
96.43
88.28
83.51
89.23
106.73
129.27
146.33
146.89
125.64
85.37
35.26
-13.65
-53.06
-79.37
-93.20
-98.17
-98.45
-96.29
-91.67
-83.70
-72.56
-59.94
-48.40
-39.94
-34.96
-32.28
-29.64
-24.88
-17.28
-7.84
1.39
8.38
12.17
13.30
13.51
14.73
18.39
24.28
30.71
35.40
36.52
33.59
27.56
20.26
12.63
5.58
-1.26
-9.08
-18.85
-30.81
-44.56
-59.55
-73.87
-87.11
-97.35
-100.92
-93.35
-71.43
-35.50
9.81
57.05
99.17
131.97
155.31
170.80
178.91
177.57
163.25
134.16
92.91
46.89
5.37
-24.13
-39.06
-42.27
-39.42
-35.92
-34.32
-34.19
-33.60
-31.16
-26.89
-22.13
-18.64
-17.42
-18.23
-19.80
-20.59
-19.66
-17.08
-14.22
-12.13
-11.72
-13.28
-16.33
-19.85
-22.88
-24.96
-26.27
-27.49
-29.35
-32.45
-36.93
-42.47
-48.42
-54.30
-59.92
-65.47
-71.38
-78.01
-85.65
-94.31
-103.75
-113.54
-123.33
-132.83
-141.79
-149.86
-156.52
-161.11
-162.85
-161.54
-156.29
-146.50
-131.93
-112.79
-89.73
-63.76
-36.15
-8.30
18.42
42.89
64.16
81.62
95.00
104.36
110.02
112.49
112.35
110.25
106.85
102.60
97.88
92.93
87.89
82.89
77.98
73.19
68.52
64.04
59.73
55.58
51.58
47.71
43.98
40.40
36.97
33.70
30.61
27.68
24.92
22.36
20.01
17.91
16.08
14.51
13.16
11.98
10.92
9.92
8.97
8.07
7.24
6.50
5.81
5.12
4.34
3.39
2.25
0.97
-0.36
-1.62
-2.75
-3.82
-5.04
-6.58
-8.63
-11.27
-14.36
-17.65
-20.79
-23.56
-26.00
-28.35
-31.04
-34.47
-38.74
-43.66
-48.70
-53.27
-56.99
-59.89
-62.45
-65.42
-69.46
-74.86
-81.35
-88.29
-94.87
-100.58
-105.36
-109.63
-114.16
-119.92
-127.98
-139.26
-154.09
-171.51
-188.94
-202.37
-207.45
-200.97
-182.20
-153.19
-117.98
-80.98
-45.55
-13.21
15.98
42.59
66.95
88.88
107.98
124.14
137.79
149.72
160.64
170.69
179.47
186.14
189.92
190.57
188.46
184.47
179.59
174.49
169.34
163.83
157.44
149.84
141.05
131.48
121.72
112.31
103.58
95.55
88.00
80.63
73.22
65.71
58.22
50.98
44.23
38.15
32.76
27.96
23.60
19.52
15.64
11.89
8.23
4.64
1.15
-2.13
-5.00
-7.28
-8.86
-9.78
-10.28
-10.68
-11.21
-11.95
-12.78
-13.44
-13.73
-13.59
-13.18
-12.79
-12.66
-12.84
-13.18
-13.41
-13.30
-12.81
-12.08
-11.32
-10.72
-10.31
-10.07
-9.94
-9.95
-10.12
-10.45
-10.78
-10.87
-10.55
-9.80
-8.85
-8.01
-7.52
-7.40
-7.50
-7.62
-7.66
-7.66
-7.67
-7.71
-7.72
-7.57
-7.23
-6.79
-6.39
-6.14
-6.01
-5.81
-5.38
-4.68
-3.92
-3.34
-3.16
-3.40
-3.86
-4.27
-4.47
-4.46
-4.39
-4.41
-4.55
-4.73
-4.81
-4.72
-4.51
-4.27
-4.11
-4.04
-3.99
-3.85
-3.61
-3.32
-3.06
-2.88
-2.80
-2.79
-2.80
-2.85
-2.98
-3.17
-3.39
-3.53
-3.50
-3.28
-2.92
-2.54
-2.27
-2.18
-2.28
-2.47
-2.61
-2.61
-2.43
-2.15
-1.89
-1.78
-1.86
-2.08
-2.32
-2.46
-2.43
-2.29
-2.17
-2.19
-2.37
-2.64
-2.81
-2.73
-2.38
-1.87
-1.45
-1.34
-1.66
-2.34
-3.08
-3.56
-3.51
-2.93
-2.04
-1.21
-0.76
-0.78
-1.10
-1.48
-1.67
-1.59
-1.32
-1.00
-0.70
-0.40
-0.09
0.21
0.37
0.23
-0.28
-1.06
-1.82
-2.28
-2.19
-1.58
-0.67
0.15
0.50
0.22
-0.61
-1.65
-2.45
-2.69
-2.34
-1.61
-0.89
-0.48
-0.40
-0.45
-0.33
0.07
0.63
1.01
0.93
0.35
-0.46
-1.11
-1.34
-1.17
-0.91
-0.88
-1.25
-1.88
-2.50
-2.83
-2.86
-2.71
-2.57
-2.48
-2.36
-2.07
-1.56
-1.00
-0.64
-0.62
-0.91
-1.31
-1.54
-1.44
-1.05
-0.54
-0.12
0.07
0.07
-0.04
-0.15
-0.23
-0.29
-0.38
-0.52
-0.67
-0.78
-0.82
-0.79
-0.76
-0.79
-0.91
-1.09
-1.19
-1.08
-0.68
-0.07
0.51
0.80
0.68
0.23
-0.23
-0.36
0.00
0.70
1.32
1.48
1.02
0.17
-0.63
-0.97
-0.75
-0.21
0.24
0.31
-0.07
-0.69
-1.23
-1.50
-1.52
-1.45
-1.46
-1.58
-1.70
-1.66
-1.37
-0.88
-0.33
0.14
0.49
0.78
1.06
1.32
1.46
1.37
0.99
0.45
-0.06
-0.35
-0.38
-0.24
-0.15
-0.26
-0.55
-0.90
-1.13
-1.12
-0.88
-0.55
-0.28
-0.14
-0.09
-0.05
0.06
0.24
0.44
0.56
0.52
0.31
-0.03
-0.42
-0.77
-1.01
-1.08
-0.98
-0.75
-0.51
-0.33
-0.31
-0.42
-0.60
-0.73
-0.73
-0.60
-0.41
-0.23
-0.13
-0.12
-0.18
-0.25
-0.29
-0.24
-0.08
0.17
0.47
0.76
0.95
0.99
0.86
0.57
0.17
-0.28
-0.77
-1.28
-1.77
-2.17
-2.37
-2.27
-1.91
-1.47
-1.16
-1.16
-1.42
-1.68
-1.70
-1.34
-0.78
-0.28
-0.10
-0.21
-0.35
-0.21
0.29
0.96
1.39
1.23
0.53
-0.35
-0.91
-0.86
-0.33
0.28
0.56
0.37
-0.08
-0.37
-0.23
0.30
0.83
0.93
0.35
-0.76
-1.96
-2.78
-2.95
-2.58
-1.98
-1.50
-1.25
-1.12
-0.83
-0.24
0.62
1.46
1.93
1.83
1.26
0.55
0.11
0.19
0.77
1.54
2.12
2.23
1.88
1.30
0.85
0.72
0.91
1.22
1.41
1.35
1.06
0.71
0.44
0.31
0.25
0.16
0.03
-0.12
-0.19
-0.15
-0.06
-0.09
-0.38
-0.92
-1.55
-1.99
-2.07
-1.72
-1.16
-0.63
-0.37
-0.42
-0.67
-0.92
-1.06
-1.11
-1.16
-1.30
-1.51
-1.66
-1.60
-1.35
-1.04
-0.91
-1.04
-1.31
-1.43
-1.15
-0.47
0.38
1.01
1.20
0.99
0.63
0.42
0.41
0.44
0.25
-0.27
-0.94
-1.38
-1.26
-0.53
0.49
1.36
1.69
1.44
0.86
0.37
0.22
0.41
0.65
0.61
0.12
-0.69
-1.48
-1.92
-1.83
-1.35
-0.79
-0.46
-0.50
-0.86
-1.29
-1.55
-1.57
-1.40
-1.25
-1.26
-1.42
-1.55
-1.46
-1.02
-0.31
0.43
0.95
1.14
1.06
0.90
0.88
1.03
1.27
1.39
1.26
0.89
0.46
0.17
0.21
0.54
1.02
1.40
1.49
1.21
0.67
0.06
-0.40
-0.56
-0.44
-0.15
0.14
0.31
0.33
0.27
0.23
0.27
0.41
0.58
0.68
0.61
0.34
-0.06
-0.46
-0.70
-0.72
-0.57
-0.38
-0.29
-0.38
-0.62
-0.85
-0.96
-0.90
-0.74
-0.60
-0.58
-0.65
-0.75
-0.76
-0.64
-0.46
-0.29
-0.16
-0.06
0.07
0.25
0.42
0.44
0.29
-0.00
-0.22
-0.18
0.19
0.72
1.12
1.11
0.60
-0.21
-1.01
-1.42
-1.32
-0.82
-0.19
0.31
0.51
0.45
0.26
0.05
-0.10
-0.21
-0.33
-0.40
-0.35
-0.06
0.46
1.05
1.39
1.13
0.14
-1.42
-3.08
-4.28
-4.65
-4.23
-3.39
-2.62
-2.24
-2.23
-2.29
-2.13
-1.68
-1.19
-1.06
-1.53
-2.47
-3.42
-3.87
-3.58
-2.76
-1.98
-1.80
-2.48
-3.79
-5.15
-5.94
-5.88
-5.17
-4.35
-4.02
-4.48
-5.58
-6.79
-7.45
-7.02
-5.26
-2.23
1.77
6.25
10.48
13.58
14.69
13.31
9.59
4.41
-0.82
-4.67
-6.22
-5.40
-2.88
0.22
2.91
4.60
5.23
5.10
4.59
3.99
3.43
2.92
2.51
2.23
2.15
2.28
2.52
2.74
2.78
2.53
2.00
1.30
0.64
0.22
0.21
0.65
1.38
2.08
2.42
2.17
1.40
0.40
-0.45
-0.87
-0.85
-0.58
-0.31
-0.18
-0.18
-0.14
0.04
0.34
0.64
0.78
0.71
0.48
0.21
0.02
-0.07
-0.12
-0.15
-0.18
-0.15
-0.04
0.17
0.42
0.63
0.78
0.85
0.89
0.89
0.84
0.65
0.31
-0.14
-0.59
-0.88
-0.91
-0.69
-0.31
0.08
0.39
0.59
0.74
0.92
1.18
1.49
1.76
1.90
1.81
1.49
1.01
0.48
0.00
-0.35
-0.59
-0.75
-0.88
-0.99
-1.05
-1.03
-0.96
-0.89
-0.92
-1.08
-1.31
-1.52
-1.59
-1.49
-1.27
-1.03
-0.87
-0.81
-0.85
-0.96
-1.13
-1.37
-1.65
-1.87
-1.93
-1.73
-1.26
-0.65
-0.09
0.25
0.26
-0.00
-0.39
-0.73
-0.87
-0.76
-0.44
0.02
0.55
1.07
1.54
1.88
2.02
1.92
1.61
1.19
0.81
0.58
0.57
0.75
1.06
1.39
1.61
1.62
1.36
0.83
0.19
-0.31
-0.45
-0.10
0.63
1.45
1.98
2.02
1.61
1.07
0.77
0.95
1.63
2.55
3.36
3.83
3.91
3.73
3.55
3.51
3.67
3.99
4.39
4.83
5.28
5.70
6.01
6.10
5.93
5.62
5.41
5.53
6.11
6.96
7.69
7.82
6.94
4.89
1.75
-2.06
-5.91
-9.02
-10.70
-10.60
-8.88
-6.22
-3.57
-1.77
-1.22
-1.79
-2.94
-4.07
-4.81
-5.12
-5.21
-5.31
-5.51
-5.73
-5.85
-5.74
-5.40
-4.90
-4.39
-4.00
-3.80
-3.77
-3.81
-3.76
-3.49
-3.02
-2.49
-2.17
-2.23
-2.61
-3.00
-3.01
-2.36
-1.17
0.14
1.02
1.14
0.60
-0.18
-0.69
-0.66
-0.20
0.37
0.67
0.60
0.27
-0.07
-0.25
-0.29
-0.34
-0.56
-0.94
-1.33
-1.53
-1.43
-1.07
-0.58
-0.13
0.23
0.47
0.66
0.75
0.70
0.46
0.08
-0.27
-0.39
-0.16
0.33
0.81
1.02
0.82
0.31
-0.24
-0.58
-0.63
-0.50
-0.40
-0.42
-0.49
-0.48
-0.24
0.18
0.59
0.72
0.51
0.03
-0.47
-0.75
-0.71
-0.42
-0.09
0.13
0.12
-0.08
-0.34
-0.56
-0.64
-0.60
-0.49
-0.43
-0.47
-0.63
-0.83
-0.96
-0.95
-0.83
-0.65
-0.50
-0.37
-0.22
0.04
0.45
0.93
1.33
1.51
1.41
1.12
0.80
0.59
0.57
0.70
0.89
1.02
1.07
1.02
0.93
0.81
0.61
0.30
-0.11
-0.54
-0.89
-1.06
-1.06
-0.94
-0.81
-0.71
-0.66
-0.67
-0.73
-0.89
-1.14
-1.43
-1.63
-1.59
-1.27
-0.74
-0.23
0.03
-0.05
-0.37
-0.70
-0.77
-0.43
0.29
1.19
2.01
2.52
2.61
2.31
1.76
1.17
0.72
0.49
0.46
0.54
0.60
0.57
0.44
0.23
-0.05
-0.37
-0.75
-1.16
-1.55
-1.82
-1.88
-1.72
-1.37
-0.97
-0.61
-0.40
-0.31
-0.28
-0.22
-0.10
0.07
0.20
0.22
0.13
-0.03
-0.17
-0.23
-0.21
-0.11
-0.01
0.05
0.04
-0.05
-0.19
-0.34
-0.41
-0.33
-0.07
0.33
0.80
1.19
1.42
1.47
1.34
1.09
0.77
0.40
0.03
-0.27
-0.45
-0.46
-0.35
-0.21
-0.18
-0.33
-0.65
-1.00
-1.25
-1.34
-1.31
-1.29
-1.37
-1.53
-1.62
-1.44
-0.95
-0.29
0.25
0.39
0.11
-0.38
-0.76
-0.75
-0.33
0.28
0.79
1.04
1.03
0.98
1.02
1.19
1.35
1.30
0.92
0.31
-0.31
-0.69
-0.65
-0.18
0.54
1.28
1.81
1.97
1.73
1.19
0.50
-0.16
-0.67
-0.97
-1.06
-1.03
-0.97
-0.93
-0.94
-0.97
-0.97
-0.89
-0.75
-0.59
-0.44
-0.33
-0.22
-0.09
0.10
0.34
0.57
0.74
0.81
0.79
0.70
0.57
0.41
0.23
0.08
0.02
0.05
0.15
0.24
0.22
0.03
-0.24
-0.48
-0.55
-0.41
-0.12
0.13
0.21
0.06
-0.25
-0.54
-0.69
-0.64
-0.47
-0.30
-0.25
-0.33
-0.46
-0.53
-0.51
-0.40
-0.33
-0.39
-0.64
-1.03
-1.45
-1.74
-1.80
-1.58
-1.17
-0.70
-0.31
-0.10
-0.04
-0.02
0.13
0.47
0.96
1.42
1.68
1.65
1.37
1.03
0.77
0.66
0.66
0.66
0.59
0.47
0.39
0.41
0.48
0.49
0.32
-0.03
-0.46
-0.72
-0.65
-0.20
0.46
1.07
1.43
1.42
1.14
0.75
0.42
0.17
-0.04
-0.32
-0.72
-1.17
-1.57
-1.75
-1.68
-1.39
-1.03
-0.76
-0.69
-0.82
-0.99
-1.05
-0.85
-0.37
0.21
0.67
0.82
0.62
0.20
-0.19
-0.36
-0.24
0.07
0.39
0.56
0.51
0.29
0.00
-0.24
-0.38
-0.38
-0.24
0.03
0.39
0.78
1.09
1.26
1.26
1.10
0.87
0.61
0.38
0.21
0.07
-0.08
-0.23
-0.40
-0.56
-0.73
-0.94
-1.17
-1.40
-1.55
-1.51
-1.26
-0.81
-0.26
0.25
0.59
0.74
0.70
0.54
0.28
-0.05
-0.43
-0.79
-1.00
-0.95
-0.61
-0.10
0.39
0.60
0.41
-0.13
-0.83
-1.43
-1.73
-1.70
-1.43
-1.05
-0.68
-0.35
-0.07
0.15
0.26
0.22
0.02
-0.28
-0.60
-0.82
-0.92
-0.86
-0.70
-0.48
-0.27
-0.15
-0.21
-0.43
-0.75
-1.02
-1.07
-0.84
-0.38
0.13
0.49
0.60
0.49
0.37
0.49
1.05
2.13
3.64
5.41
7.22
8.83
10.04
10.69
10.71
10.14
9.18
8.12
7.22
6.60
6.09
5.34
3.98
1.86
-0.83
-3.54
-5.73
-7.00
-7.34
-7.03
-6.45
-5.87
-5.36
-4.76
-3.96
-2.97
-2.00
-1.35
-1.26
-1.73
-2.54
-3.30
-3.64
-3.37
-2.59
-1.60
-0.76
-0.35
-0.39
-0.74
-1.16
-1.45
-1.58
-1.61
-1.61
-1.61
-1.58
-1.49
-1.37
-1.26
-1.24
-1.28
-1.27
-1.11
-0.75
-0.27
0.16
0.37
0.33
0.13
-0.05
-0.10
-0.03
0.03
-0.05
-0.32
-0.71
-1.00
-1.01
-0.68
-0.15
0.39
0.73
0.79
0.61
0.38
0.22
0.19
0.24
0.27
0.23
0.12
0.03
0.01
0.04
0.04
-0.12
-0.44
-0.82
-1.06
-0.97
-0.51
0.19
0.85
1.19
1.06
0.54
-0.09
-0.50
-0.51
-0.14
0.36
0.69
0.65
0.24
-0.31
-0.72
-0.82
-0.66
-0.41
-0.27
-0.34
-0.55
-0.75
-0.80
-0.71
-0.54
-0.43
-0.41
-0.48
-0.55
-0.57
-0.54
-0.51
-0.51
-0.53
-0.50
-0.34
-0.03
0.35
0.65
0.76
0.69
0.57
0.56
0.74
1.06
1.37
1.53
1.51
1.39
1.28
1.24
1.22
1.10
0.84
0.47
0.15
-0.02
-0.00
0.14
0.25
0.26
0.19
0.12
0.11
0.20
0.31
0.34
0.23
-0.00
-0.26
-0.45
-0.51
-0.52
-0.57
-0.75
-1.07
-1.47
-1.79
-1.94
-1.88
-1.67
-1.39
-1.10
-0.86
-0.63
-0.38
-0.10
0.22
0.52
0.75
0.84
0.75
0.49
0.15
-0.15
-0.30
-0.25
-0.06
0.13
0.20
0.11
-0.05
-0.13
-0.02
0.28
0.61
0.80
0.72
0.39
-0.00
-0.22
-0.11
0.29
0.80
1.19
1.32
1.20
0.95
0.69
0.47
0.24
-0.07
-0.47
-0.87
-1.15
-1.25
-1.17
-1.02
-0.89
-0.81
-0.73
-0.56
-0.27
0.11
0.45
0.64
0.64
0.47
0.24
0.05
-0.05
-0.04
0.04
0.15
0.29
0.43
0.53
0.52
0.35
0.00
-0.40
-0.71
-0.77
-0.54
-0.15
0.22
0.41
0.36
0.15
-0.05
-0.14
-0.12
-0.02
0.06
0.06
-0.03
-0.19
-0.41
-0.71
-1.07
-1.44
-1.71
-1.76
-1.53
-1.06
-0.51
-0.03
0.25
0.29
0.11
-0.18
-0.48
-0.65
-0.60
-0.29
0.21
0.77
1.20
1.39
1.29
0.95
0.52
0.12
-0.11
-0.12
0.09
0.44
0.80
1.09
1.21
1.20
1.13
1.08
1.06
1.02
0.89
0.62
0.27
-0.02
-0.17
-0.19
-0.20
-0.35
-0.71
-1.24
-1.78
-2.16
-2.25
-2.05
-1.70
-1.35
-1.10
-0.95
-0.81
-0.53
-0.07
0.47
0.92
1.06
0.81
0.26
-0.38
-0.90
-1.13
-1.08
-0.85
-0.54
-0.22
0.15
0.55
0.94
1.23
1.27
1.03
0.59
0.15
-0.08
0.01
0.39
0.89
1.30
1.50
1.46
1.24
0.99
0.79
0.70
0.72
0.80
0.91
1.02
1.09
1.13
1.10
0.96
0.68
0.26
-0.22
-0.64
-0.86
-0.81
-0.54
-0.26
-0.22
-0.58
-1.36
-2.32
-3.10
-3.36
-2.94
-1.93
-0.68
0.38
0.93
0.87
0.40
-0.12
-0.37
-0.23
0.22
0.74
1.10
1.23
1.23
1.27
1.47
1.76
1.98
1.93
1.51
0.82
0.04
-0.59
-0.92
-0.95
-0.80
-0.64
-0.63
-0.83
-1.20
-1.64
-1.97
-2.05
-1.85
-1.44
-0.96
-0.53
-0.22
-0.01
0.16
0.37
0.61
0.84
1.01
1.06
1.03
0.96
0.89
0.84
0.79
0.73
0.60
0.38
0.05
-0.36
-0.81
-1.19
-1.46
-1.58
-1.60
-1.57
-1.52
-1.43
-1.25
-0.94
-0.52
-0.09
0.24
0.41
0.44
0.44
0.54
0.82
1.25
1.71
2.02
2.11
1.96
1.67
1.37
1.15
1.01
0.89
0.77
0.66
0.64
0.75
0.95
1.09
0.99
0.55
-0.13
-0.80
-1.23
-1.29
-1.09
-0.86
-0.79
-0.87
-0.95
-0.80
-0.36
0.24
0.69
0.74
0.34
-0.30
-0.87
-1.15
-1.15
-1.08
-1.21
-1.65
-2.25
-2.70
-2.72
-2.22
-1.36
-0.49
0.09
0.26
0.14
-0.05
-0.17
-0.19
-0.21
-0.33
-0.52
-0.62
-0.45
0.05
0.77
1.41
1.67
1.42
0.82
0.21
-0.07
0.13
0.67
1.21
1.40
1.08
0.40
-0.34
-0.82
-0.92
-0.70
-0.38
-0.10
0.07
0.23
0.46
0.80
1.21
1.57
1.72
1.63
1.32
0.91
0.52
0.25
0.07
-0.10
-0.34
-0.67
-0.99
-1.18
-1.16
-0.97
-0.76
-0.65
-0.68
-0.75
-0.69
-0.39
0.10
0.57
0.83
0.79
0.51
0.19
0.01
-0.02
0.03
-0.00
-0.18
-0.45
-0.69
-0.75
-0.62
-0.34
-0.03
0.17
0.21
0.08
-0.18
-0.48
-0.74
-0.83
-0.70
-0.30
0.28
0.86
1.25
1.32
1.09
0.67
0.22
-0.13
-0.37
-0.55
-0.72
-0.88
-0.96
-0.89
-0.64
-0.28
0.06
0.27
0.32
0.25
0.12
-0.01
-0.13
-0.23
-0.31
-0.33
-0.26
-0.06
0.25
0.63
0.98
1.23
1.29
1.13
0.79
0.35
-0.04
-0.27
-0.27
-0.09
0.14
0.33
0.41
0.41
0.42
0.48
0.59
0.67
0.69
0.62
0.53
0.50
0.57
0.73
0.89
0.94
0.83
0.51
0.07
-0.41
-0.83
-1.18
-1.42
-1.58
-1.63
-1.54
-1.29
-0.93
-0.57
-0.34
-0.28
-0.35
-0.41
-0.32
-0.04
0.36
0.71
0.85
0.75
0.47
0.15
-0.12
-0.30
-0.43
-0.56
-0.70
-0.78
-0.74
-0.59
-0.36
-0.15
-0.03
-0.00
-0.01
0.04
0.19
0.42
0.64
0.76
0.72
0.52
0.24
-0.05
-0.26
-0.40
-0.51
-0.61
-0.67
-0.64
-0.44
-0.05
0.43
0.84
0.97
0.74
0.22
-0.34
-0.70
-0.71
-0.40
0.06
0.46
0.68
0.71
0.66
0.59
0.52
0.41
0.21
-0.05
-0.23
-0.18
0.18
0.77
1.36
1.70
1.64
1.22
0.60
-0.00
-0.43
-0.62
-0.60
-0.45
-0.25
-0.09
-0.05
-0.18
-0.48
-0.87
-1.20
-1.30
-1.13
-0.75
-0.34
-0.08
-0.03
-0.15
-0.32
-0.43
-0.48
-0.54
-0.70
-0.97
-1.30
-1.55
-1.61
-1.43
-1.09
-0.66
-0.29
-0.03
0.10
0.15
0.19
0.26
0.38
0.50
0.58
0.58
0.51
0.41
0.36
0.44
0.67
1.01
1.36
1.65
1.80
1.80
1.64
1.34
0.92
0.43
-0.02
-0.31
-0.36
-0.19
0.09
0.29
0.26
-0.03
-0.51
-1.00
-1.35
-1.47
-1.34
-1.02
-0.61
-0.24
0.01
0.08
0.01
-0.09
-0.13
-0.06
0.04
0.03
-0.18
-0.55
-0.91
-1.07
-0.95
-0.61
-0.22
0.07
0.24
0.32
0.38
0.37
0.19
-0.23
-0.85
-1.44
-1.74
-1.56
-0.99
-0.30
0.18
0.30
0.11
-0.18
-0.33
-0.24
0.06
0.50
1.01
1.60
2.19
2.62
2.65
2.11
1.08
-0.08
-0.86
-0.90
-0.23
0.71
1.26
0.94
-0.25
-1.89
-3.26
-3.73
-3.11
-1.70
-0.15
0.76
0.57
-0.77
-2.87
-4.87
-5.87
-5.13
-2.16
3.03
9.78
16.61
21.37
21.89
16.94
7.06
-5.23
-16.27
-22.72
-23.07
-18.19
-10.71
-3.65
1.11
3.33
4.06
4.53
5.25
5.81
5.50
3.92
1.48
-0.75
-1.82
-1.24
0.59
2.61
3.80
3.62
2.22
0.32
-1.23
-1.92
-1.71
-1.00
-0.35
-0.13
-0.39
-0.95
-1.47
-1.70
-1.50
-0.92
-0.14
0.62
1.12
1.20
0.81
0.09
-0.68
-1.22
-1.35
-1.11
-0.72
-0.42
-0.36
-0.52
-0.77
-0.98
-1.10
-1.19
-1.33
-1.52
-1.67
-1.63
-1.33
-0.85
-0.36
-0.09
-0.08
-0.29
-0.51
-0.56
-0.37
-0.03
0.28
0.46
0.51
0.53
0.64
0.88
1.19
1.45
1.62
1.77
2.02
2.44
2.96
3.34
3.38
2.97
2.19
1.29
0.50
-0.08
-0.49
-0.83
-1.16
-1.43
-1.55
-1.45
-1.21
-0.99
-0.93
-1.05
-1.22
-1.22
-0.95
-0.45
0.08
0.39
0.40
0.16
-0.11
-0.26
-0.23
-0.09
0.01
0.02
-0.02
-0.03
0.09
0.29
0.49
0.60
0.59
0.55
0.59
0.77
1.07
1.35
1.49
1.45
1.24
1.01
0.83
0.75
0.73
0.67
0.51
0.25
-0.04
-0.26
-0.34
-0.30
-0.22
-0.21
-0.30
-0.51
-0.78
-1.04
-1.27
-1.38
-1.33
-1.10
-0.72
-0.29
0.02
0.11
-0.04
-0.33
-0.60
-0.74
-0.70
-0.54
-0.32
-0.11
0.05
0.15
0.15
0.02
-0.22
-0.49
-0.70
-0.76
-0.64
-0.38
-0.06
0.20
0.32
0.27
0.08
-0.18
-0.39
-0.45
-0.28
0.07
0.46
0.75
0.79
0.61
0.32
0.11
0.14
0.43
0.86
1.27
1.47
1.39
1.09
0.70
0.35
0.14
0.07
0.11
0.24
0.49
0.91
1.50
2.23
2.93
3.40
3.47
3.08
2.34
1.44
0.59
-0.07
-0.48
-0.68
-0.74
-0.72
-0.62
-0.46
-0.29
-0.18
-0.21
-0.40
-0.68
-0.94
-1.08
-1.05
-0.91
-0.72
-0.56
-0.50
-0.55
-0.70
-0.93
-1.19
-1.41
-1.51
-1.40
-1.08
-0.58
-0.05
0.41
0.68
0.71
0.55
0.27
-0.05
-0.32
-0.49
-0.57
-0.58
-0.59
-0.67
-0.82
-1.02
-1.16
-1.16
-1.03
-0.85
-0.74
-0.82
-1.07
-1.38
-1.61
-1.63
-1.44
-1.13
-0.80
-0.47
-0.12
0.33
0.88
1.37
1.65
1.59
1.26
0.85
0.59
0.58
0.77
0.97
1.01
0.86
0.60
0.33
0.12
-0.06
-0.30
-0.60
-0.87
-0.98
-0.84
-0.44
0.06
0.49
0.71
0.71
0.57
0.41
0.28
0.20
0.11
-0.05
-0.28
-0.52
-0.71
-0.82
-0.86
-0.89
-0.92
-0.95
-0.96
-0.92
-0.84
-0.73
-0.58
-0.38
-0.11
0.21
0.53
0.77
0.88
0.87
0.81
0.76
0.76
0.76
0.69
0.50
0.17
-0.22
-0.56
-0.73
-0.65
-0.34
0.12
0.59
0.95
1.07
0.94
0.59
0.15
-0.27
-0.58
-0.70
-0.67
-0.54
-0.36
-0.16
0.07
0.32
0.56
0.72
0.73
0.60
0.34
0.04
-0.23
-0.45
-0.60
-0.71
-0.76
-0.77
-0.73
-0.70
-0.69
-0.74
-0.82
-0.85
-0.73
-0.43
0.02
0.51
0.91
1.12
1.09
0.91
0.63
0.34
0.08
-0.14
-0.31
-0.39
-0.34
-0.16
0.07
0.24
0.21
-0.02
-0.37
-0.68
-0.80
-0.70
-0.46
-0.18
0.03
0.16
0.24
0.31
0.36
0.35
0.27
0.13
-0.03
-0.17
-0.24
-0.27
-0.26
-0.21
-0.10
0.10
0.35
0.61
0.79
0.83
0.69
0.44
0.15
-0.11
-0.27
-0.33
-0.27
-0.08
0.27
0.74
1.24
1.63
1.78
1.61
1.15
0.54
-0.09
-0.63
-1.06
-1.37
-1.57
-1.64
-1.52
-1.20
-0.71
-0.15
0.33
0.63
0.67
0.47
0.12
-0.28
-0.60
-0.76
-0.73
-0.55
-0.32
-0.18
-0.21
-0.41
-0.70
-0.95
-1.05
-0.98
-0.78
-0.56
-0.42
-0.38
-0.40
-0.46
-0.47
-0.43
-0.36
-0.28
-0.22
-0.17
-0.09
0.05
0.27
0.56
0.87
1.13
1.26
1.21
0.98
0.65
0.34
0.16
0.18
0.39
0.70
1.01
1.18
1.18
1.01
0.75
0.48
0.30
0.22
0.26
0.34
0.36
0.25
-0.02
-0.34
-0.56
-0.55
-0.27
0.17
0.60
0.89
1.00
0.98
0.93
0.89
0.78
0.48
-0.08
-0.84
-1.60
-2.11
-2.20
-1.84
-1.21
-0.54
-0.01
0.31
0.49
0.63
0.80
0.98
1.12
1.12
0.94
0.60
0.12
-0.44
-1.03
-1.56
-1.90
-1.94
-1.65
-1.07
-0.38
0.20
0.51
0.50
0.27
-0.04
-0.27
-0.36
-0.31
-0.19
-0.07
0.00
0.02
0.00
-0.03
-0.04
0.00
0.14
0.35
0.58
0.71
0.64
0.33
-0.12
-0.53
-0.65
-0.36
0.29
1.06
1.65
1.82
1.54
0.99
0.47
0.20
0.28
0.58
0.90
1.05
0.98
0.72
0.41
0.15
0.00
-0.08
-0.15
-0.24
-0.37
-0.47
-0.52
-0.53
-0.52
-0.55
-0.62
-0.72
-0.79
-0.77
-0.68
-0.59
-0.58
-0.70
-0.91
-1.15
-1.26
-1.19
-0.93
-0.52
-0.05
0.42
0.78
0.96
0.90
0.57
0.02
-0.60
-1.14
-1.48
-1.58
-1.44
-1.13
-0.69
-0.15
0.42
0.93
1.22
1.22
0.93
0.50
0.13
-0.02
0.07
0.29
0.54
0.73
0.87
0.99
1.12
1.21
1.16
0.96
0.71
0.54
0.56
0.76
0.97
0.98
0.68
0.11
-0.51
-0.97
-1.17
-1.17
-1.09
-1.07
-1.12
-1.16
-1.10
-0.93
-0.74
-0.64
-0.71
-0.91
-1.10
-1.16
-1.02
-0.75
-0.49
-0.39
-0.44
-0.57
-0.61
-0.46
-0.12
0.30
0.63
0.79
0.79
0.75
0.75
0.83
0.93
0.97
0.92
0.82
0.74
0.71
0.72
0.68
0.56
0.38
0.25
0.27
0.42
0.62
0.72
0.61
0.32
-0.05
-0.34
-0.48
-0.51
-0.55
-0.69
-0.93
-1.22
-1.43
-1.47
-1.36
-1.12
-0.83
-0.53
-0.24
-0.00
0.14
0.15
0.00
-0.23
-0.46
-0.57
-0.55
-0.42
-0.29
-0.21
-0.20
-0.17
-0.03
0.23
0.55
0.81
0.93
0.92
0.89
0.98
1.22
1.49
1.64
1.50
1.04
0.39
-0.25
-0.72
-0.93
-0.93
-0.81
-0.65
-0.51
-0.39
-0.27
-0.14
0.01
0.19
0.33
0.41
0.41
0.32
0.19
0.09
0.07
0.15
0.31
0.52
0.76
0.99
1.17
1.25
1.14
0.82
0.33
-0.19
-0.59
-0.70
-0.52
-0.15
0.24
0.50
0.56
0.45
0.26
0.08
-0.08
-0.24
-0.44
-0.64
-0.78
-0.79
-0.65
-0.45
-0.34
-0.40
-0.63
-0.91
-1.06
-0.98
-0.68
-0.29
0.03
0.16
0.12
-0.03
-0.19
-0.31
-0.40
-0.50
-0.66
-0.87
-1.07
-1.19
-1.18
-1.01
-0.72
-0.36
-0.01
0.28
0.51
0.68
0.80
0.88
0.93
0.94
0.94
0.96
1.07
1.29
1.55
1.75
1.72
1.37
0.76
0.02
-0.63
-1.00
-1.06
-0.88
-0.61
-0.37
-0.26
-0.28
-0.43
-0.63
-0.81
-0.88
-0.78
-0.49
-0.06
0.37
0.70
0.84
0.81
0.66
0.46
0.20
-0.09
-0.38
-0.62
-0.72
-0.65
-0.41
-0.08
0.27
0.57
0.77
0.86
0.86
0.80
0.71
0.59
0.45
0.23
-0.10
-0.55
-0.99
-1.30
-1.36
-1.13
-0.74
-0.33
-0.04
0.12
0.20
0.27
0.38
0.49
0.59
0.66
0.75
0.89
1.04
1.11
0.95
0.52
-0.12
-0.75
-1.18
-1.31
-1.14
-0.83
-0.52
-0.30
-0.17
-0.03
0.13
0.30
0.46
0.55
0.56
0.55
0.54
0.54
0.52
0.42
0.19
-0.17
-0.60
-1.03
-1.32
-1.41
-1.30
-1.03
-0.68
-0.31
0.04
0.35
0.60
0.72
0.67
0.45
0.14
-0.06
-0.00
0.35
0.90
1.37
1.55
1.33
0.79
0.14
-0.43
-0.83
-1.06
-1.16
-1.16
-1.04
-0.78
-0.41
-0.06
0.17
0.19
0.03
-0.21
-0.40
-0.44
-0.32
-0.05
0.30
0.67
0.97
1.12
1.06
0.78
0.34
-0.10
-0.38
-0.41
-0.15
0.32
0.82
1.19
1.29
1.10
0.68
0.15
-0.33
-0.69
-0.92
-1.07
-1.19
-1.29
-1.31
-1.18
-0.91
-0.59
-0.39
-0.46
-0.77
-1.13
-1.30
-1.09
-0.56
0.06
0.46
0.49
0.23
-0.01
0.08
0.61
1.38
1.97
2.02
1.41
0.36
-0.71
-1.38
-1.48
-1.08
-0.47
0.10
0.48
0.73
0.95
1.22
1.49
1.64
1.58
1.31
0.91
0.55
0.30
0.17
0.07
-0.08
-0.29
-0.50
-0.60
-0.53
-0.31
-0.03
0.21
0.33
0.35
0.32
0.27
0.17
-0.09
-0.53
-1.10
-1.65
-1.98
-2.00
-1.72
-1.27
-0.84
-0.52
-0.33
-0.19
-0.01
0.25
0.50
0.64
0.61
0.41
0.16
-0.02
-0.05
0.05
0.19
0.22
0.12
-0.08
-0.23
-0.18
0.09
0.46
0.74
0.77
0.49
0.04
-0.39
-0.64
-0.66
-0.48
-0.23
0.02
0.25
0.45
0.61
0.67
0.58
0.34
0.03
-0.17
-0.17
0.04
0.31
0.45
0.34
0.01
-0.38
-0.62
-0.61
-0.43
-0.23
-0.18
-0.34
-0.63
-0.87
-0.90
-0.70
-0.34
0.04
0.34
0.53
0.66
0.76
0.80
0.72
0.48
0.13
-0.16
-0.21
0.05
0.49
0.86
0.90
0.50
-0.20
-0.89
-1.28
-1.26
-0.91
-0.51
-0.26
-0.24
-0.38
-0.48
-0.44
-0.23
0.09
0.40
0.59
0.65
0.59
0.46
0.30
0.11
-0.07
-0.23
-0.38
-0.49
-0.53
-0.53
-0.44
-0.26
-0.02
0.26
0.51
0.67
0.72
0.69
0.60
0.51
0.43
0.38
0.34
0.30
0.24
0.13
0.01
-0.10
-0.13
-0.05
0.13
0.31
0.39
0.30
0.04
-0.28
-0.54
-0.66
-0.62
-0.45
-0.23
0.02
0.26
0.45
0.54
0.47
0.25
-0.07
-0.38
-0.52
-0.48
-0.31
-0.17
-0.20
-0.42
-0.72
-0.94
-0.96
-0.77
-0.50
-0.27
-0.13
-0.01
0.20
0.56
0.99
1.30
1.32
1.04
0.63
0.32
0.23
0.35
0.51
0.54
0.31
-0.10
-0.52
-0.79
-0.83
-0.68
-0.43
-0.20
-0.05
0.03
0.03
-0.01
-0.07
-0.13
-0.20
-0.27
-0.33
-0.39
-0.39
-0.32
-0.16
0.06
0.29
0.42
0.42
0.27
0.06
-0.16
-0.36
-0.54
-0.72
-0.94
-1.19
-1.40
-1.49
-1.44
-1.25
-1.02
-0.84
-0.78
-0.84
-0.93
-0.94
-0.82
-0.63
-0.48
-0.54
-0.86
-1.36
-1.85
-2.09
-1.93
-1.39
-0.66
0.01
0.34
0.20
-0.43
-1.41
-2.49
-3.36
-3.77
-3.63
-3.08
-2.52
-2.42
-3.07
-4.40
-5.86
-6.60
-5.92
-3.62
-0.23
3.09
5.18
5.45
4.35
3.33
4.34
9.16
18.65
32.44
48.86
65.43
79.33
88.26
91.03
88.14
81.84
75.87
74.71
82.30
100.65
129.08
163.99
199.83
230.86
252.45
262.31
260.19
246.84
222.83
187.82
141.02
83.41
19.24
-43.92
-97.27
-134.55
-154.91
-163.06
-166.52
-171.57
-180.85
-193.47
-207.10
-220.45
-233.33
-244.80
-251.04
-245.43
-221.37
-176.47
-115.03
-47.36
14.32
60.28
85.89
91.72
81.13
58.47
28.29
-4.78
-35.88
-60.59
-76.42
-83.26
-82.95
-78.19
-71.10
-62.90
-54.54
-47.49
-43.81
-45.57
-54.01
-68.71
-87.42
-106.61
-122.07
-129.47
-124.92
-106.25
-74.59
-35.23
3.66
33.81
50.87
56.25
55.91
57.04
63.86
75.68
87.66
94.29
92.97
85.40
75.71
66.64
56.51
39.29
8.21
-39.36
-98.86
-159.46
-208.52
-237.18
-244.05
-234.75
-218.03
-200.73
-184.62
-166.47
-140.76
-103.28
-53.56
4.38
63.03
113.19
147.10
161.45
159.03
148.11
138.70
138.08
147.58
162.77
176.90
185.26
187.55
186.66
185.26
182.90
176.15
161.78
140.60
118.84
105.47
107.22
124.24
149.33
171.38
180.59
172.78
149.94
117.90
82.13
45.30
7.60
-31.09
-68.73
-100.85
-122.40
-130.57
-126.21
-113.78
-99.22
-87.37
-80.96
-80.56
-85.92
-96.83
-112.89
-132.46
-151.81
-165.45
-167.88
-155.97
-130.41
-95.85
-59.05
-26.60
-2.85
10.98
16.27
15.83
12.41
8.12
4.26
1.62
0.67
1.55
3.98
7.25
10.39
12.43
12.85
11.69
9.48
7.19
5.63
5.35
6.42
8.30
10.22
11.37
11.32
10.16
8.39
6.68
5.62
5.38
5.76
6.29
6.53
6.24
5.45
4.39
3.37
2.67
2.37
2.39
2.53
2.53
2.21
1.53
0.59
-0.41
-1.19
-1.57
-1.50
-1.07
-0.46
0.11
0.52
0.74
0.77
0.65
0.38
0.02
-0.38
-0.71
-0.89
-0.87
-0.70
-0.44
-0.19
0.03
0.23
0.46
0.70
0.88
0.94
0.85
0.66
0.46
0.28
0.16
0.10
0.10
0.21
0.47
0.86
1.33
1.74
2.02
2.14
2.12
2.01
1.80
1.49
1.05
0.49
-0.12
-0.71
-1.17
-1.42
-1.44
-1.26
-0.95
-0.61
-0.27
0.03
0.31
0.59
0.81
0.90
0.80
0.57
0.30
0.19
0.35
0.74
1.19
1.42
1.25
0.69
-0.06
-0.73
-1.10
-1.14
-1.03
-0.98
-1.14
-1.44
-1.70
-1.70
-1.35
-0.84
-0.44
-0.41
-0.82
-1.48
-2.02
-2.12
-1.65
-0.76
0.27
1.12
1.59
1.70
1.56
1.37
1.28
1.33
1.44
1.52
1.50
1.40
1.31
1.30
1.36
1.40
1.31
1.06
0.71
0.41
0.25
0.22
0.20
0.03
-0.29
-0.64
-0.79
-0.56
0.04
0.79
1.40
1.63
1.42
0.89
0.26
-0.30
-0.69
-0.92
-1.02
-0.97
-0.74
-0.34
0.17
0.66
1.00
1.12
1.03
0.83
0.61
0.44
0.34
0.23
0.12
0.00
-0.05
0.03
0.25
0.54
0.79
0.89
0.79
0.57
0.39
0.37
0.57
0.88
1.12
1.10
0.76
0.21
-0.34
-0.72
-0.83
-0.69
-0.45
-0.23
-0.11
-0.09
-0.12
-0.14
-0.11
0.02
0.27
0.58
0.89
1.07
1.00
0.64
0.08
-0.51
-0.93
-1.05
-0.88
-0.54
-0.19
0.04
0.11
0.14
0.21
0.43
0.80
1.23
1.56
1.68
1.54
1.18
0.76
0.40
0.20
0.13
0.08
-0.09
-0.44
-0.95
-1.49
-1.93
-2.12
-2.06
-1.76
-1.35
-0.92
-0.57
-0.35
-0.24
-0.17
-0.07
0.11
0.38
0.66
0.87
0.92
0.80
0.59
0.38
0.28
0.30
0.40
0.50
0.58
0.62
0.68
0.85
1.14
1.51
1.89
2.20
2.38
2.37
2.19
1.82
1.39
1.00
0.80
0.91
1.36
2.05
2.82
3.55
3.99
4.17
4.02
3.66
3.32
3.45
4.53
6.76
9.79
12.63
14.12
13.44
10.72
7.08
4.18
3.43
5.31
9.19
13.60
17.21
19.30
19.99
20.06
20.49
22.01
25.25
30.97
39.87
52.30
67.19
81.31
89.69
86.97
70.39
41.77
7.23
-25.41
-49.72
-63.21
-67.08
-64.18
-56.91
-46.22
-32.77
-18.49
-6.88
-1.80
-5.44
-16.85
-32.39
-47.85
-60.35
-69.80
-78.24
-88.47
-102.34
-119.88
-138.75
-154.46
-161.63
-155.78
-135.21
-101.72
-59.99
-15.96
24.68
57.73
80.54
91.74
91.87
83.71
72.19
62.43
57.91
58.77
62.09
64.10
62.89
59.72
58.36
62.73
74.54
92.48
112.57
129.35
137.07
130.50
106.41
65.76
14.95
-34.80
-70.48
-82.43
-68.53
-35.19
5.10
38.85
56.73
56.21
40.71
17.16
-7.71
-29.26
-45.09
-54.60
-57.85
-55.39
-48.38
-38.87
-29.49
-22.95
-21.08
-24.09
-30.53
-37.31
-41.22
-40.11
-33.86
-24.61
-16.06
-11.35
-11.77
-16.17
-21.35
-23.93
-22.15
-16.47
-9.22
-3.20
-0.08
0.22
-1.03
-2.19
-2.33
-1.47
-0.21
0.85
1.43
1.57
1.67
1.99
2.61
3.49
4.41
5.21
6.06
7.19
8.40
8.99
7.95
4.67
-0.51
-6.14
-10.23
-11.38
-9.47
-5.75
-2.04
0.23
0.79
0.32
-0.17
-0.11
0.36
0.68
0.45
-0.23
-0.90
-1.12
-0.71
0.03
0.79
1.17
0.96
0.33
-0.39
-1.00
-1.24
-1.02
-0.48
0.21
0.80
1.10
1.07
0.78
0.40
0.17
0.24
0.60
1.10
1.47
1.50
1.15
0.54
-0.07
-0.44
-0.44
-0.16
0.23
0.54
0.68
0.67
0.61
0.57
0.58
0.59
0.51
0.33
0.02
-0.35
-0.68
-0.91
-1.02
-1.02
-0.94
-0.81
-0.65
-0.42
-0.11
0.30
0.74
1.15
1.44
1.60
1.63
1.57
1.46
1.29
1.06
0.81
0.62
0.56
0.62
0.72
0.69
0.44
-0.01
-0.52
-0.89
-0.97
-0.76
-0.38
-0.00
0.24
0.29
0.18
-0.02
-0.23
-0.38
-0.41
-0.32
-0.14
0.05
0.15
0.12
-0.01
-0.15
-0.19
-0.12
-0.02
0.01
-0.15
-0.47
-0.82
-1.05
-1.04
-0.82
-0.53
-0.32
-0.27
-0.38
-0.49
-0.51
-0.34
-0.03
0.36
0.74
1.04
1.25
1.37
1.40
1.37
1.30
1.23
1.19
1.19
1.21
1.22
1.18
1.06
0.86
0.59
0.29
0.01
-0.18
-0.23
-0.16
-0.02
0.10
0.14
0.16
0.19
0.28
0.40
0.45
0.34
0.08
-0.24
-0.47
-0.53
-0.46
-0.36
-0.34
-0.39
-0.44
-0.37
-0.16
0.09
0.29
0.34
0.30
0.28
0.38
0.58
0.78
0.87
0.78
0.56
0.34
0.22
0.24
0.33
0.42
0.49
0.57
0.71
0.90
1.10
1.17
0.99
0.57
-0.01
-0.59
-1.01
-1.17
-1.10
-0.91
-0.71
-0.58
-0.52
-0.45
-0.27
0.06
0.51
0.96
1.27
1.34
1.17
0.84
0.49
0.19
-0.03
-0.23
-0.46
-0.71
-0.89
-0.87
-0.58
-0.05
0.58
1.06
1.20
0.96
0.45
-0.14
-0.56
-0.69
-0.53
-0.20
0.13
0.33
0.32
0.12
-0.16
-0.40
-0.48
-0.36
-0.05
0.34
0.67
0.86
0.89
0.82
0.77
0.80
0.92
1.08
1.20
1.24
1.19
1.07
0.88
0.59
0.20
-0.28
-0.75
-1.09
-1.16
-0.93
-0.44
0.21
0.85
1.35
1.65
1.73
1.65
1.46
1.24
1.01
0.79
0.54
0.31
0.10
-0.04
-0.11
-0.13
-0.16
-0.22
-0.32
-0.42
-0.47
-0.43
-0.32
-0.19
-0.09
-0.07
-0.12
-0.24
-0.40
-0.61
-0.85
-1.10
-1.35
-1.52
-1.56
-1.38
-0.97
-0.33
0.40
1.06
1.53
1.75
1.77
1.69
1.57
1.42
1.19
0.84
0.37
-0.07
-0.36
-0.42
-0.31
-0.17
-0.14
-0.34
-0.69
-1.00
-1.10
-0.92
-0.52
-0.12
0.09
0.05
-0.12
-0.24
-0.16
0.12
0.41
0.48
0.23
-0.28
-0.79
-1.05
-0.90
-0.44
0.15
0.62
0.84
0.81
0.65
0.43
0.24
0.08
-0.07
-0.18
-0.21
-0.12
0.09
0.35
0.60
0.74
0.81
0.82
0.83
0.86
0.85
0.78
0.64
0.49
0.38
0.36
0.38
0.33
0.14
-0.18
-0.53
-0.76
-0.73
-0.45
0.01
0.51
0.97
1.30
1.47
1.48
1.32
1.03
0.63
0.23
-0.07
-0.19
-0.11
0.09
0.27
0.29
0.09
-0.26
-0.63
-0.83
-0.72
-0.34
0.13
0.47
0.52
0.24
-0.21
-0.60
-0.75
-0.65
-0.41
-0.24
-0.26
-0.47
-0.74
-0.87
-0.77
-0.45
-0.03
0.36
0.64
0.78
0.82
0.82
0.83
0.91
1.07
1.32
1.60
1.80
1.81
1.55
1.02
0.34
-0.34
-0.83
-1.05
-0.98
-0.69
-0.25
0.22
0.62
0.87
0.88
0.65
0.23
-0.26
-0.73
-1.08
-1.29
-1.38
-1.39
-1.33
-1.22
-1.03
-0.80
-0.57
-0.41
-0.35
-0.33
-0.26
-0.04
0.36
0.87
1.35
1.62
1.60
1.31
0.87
0.50
0.36
0.53
0.94
1.42
1.77
1.86
1.66
1.29
0.90
0.61
0.43
0.30
0.12
-0.11
-0.33
-0.43
-0.34
-0.12
0.11
0.21
0.11
-0.12
-0.37
-0.51
-0.55
-0.54
-0.53
-0.57
-0.62
-0.61
-0.54
-0.38
-0.21
-0.05
0.08
0.19
0.30
0.40
0.43
0.35
0.14
-0.18
-0.52
-0.82
-1.02
-1.09
-1.04
-0.86
-0.59
-0.29
-0.06
0.03
-0.05
-0.28
-0.58
-0.87
-1.08
-1.19
-1.22
-1.16
-0.94
-0.53
0.06
0.72
1.29
1.61
1.65
1.45
1.17
0.92
0.79
0.80
0.89
1.00
1.08
1.11
1.10
1.03
0.93
0.81
0.70
0.62
0.52
0.40
0.22
0.02
-0.15
-0.22
-0.16
0.01
0.22
0.36
0.38
0.30
0.17
0.11
0.19
0.42
0.71
0.93
0.94
0.67
0.18
-0.40
-0.90
-1.22
-1.32
-1.31
-1.27
-1.25
-1.22
-1.06
-0.67
-0.08
0.61
1.24
1.66
1.84
1.75
1.45
1.00
0.49
0.02
-0.30
-0.39
-0.29
-0.10
0.05
0.06
-0.06
-0.24
-0.43
-0.57
-0.67
-0.76
-0.84
-0.85
-0.73
-0.49
-0.12
0.29
0.67
0.94
1.05
0.98
0.74
0.36
-0.04
-0.31
-0.40
-0.27
-0.04
0.15
0.21
0.12
-0.03
-0.09
0.05
0.36
0.71
0.91
0.84
0.49
0.01
-0.40
-0.59
-0.52
-0.22
0.17
0.50
0.70
0.71
0.55
0.25
-0.09
-0.39
-0.57
-0.56
-0.37
-0.08
0.19
0.33
0.30
0.17
0.05
0.03
0.14
0.28
0.33
0.20
-0.05
-0.30
-0.39
-0.26
0.03
0.34
0.53
0.55
0.49
0.44
0.49
0.64
0.87
1.07
1.20
1.22
1.14
0.96
0.71
0.40
0.06
-0.28
-0.60
-0.81
-0.86
-0.69
-0.32
0.15
0.54
0.70
0.53
0.08
-0.50
-1.01
-1.30
-1.32
-1.11
-0.81
-0.50
-0.30
-0.27
-0.38
-0.63
-0.90
-1.10
-1.13
-0.94
-0.54
-0.02
0.47
0.81
0.89
0.74
0.39
-0.03
-0.40
-0.64
-0.67
-0.49
-0.13
0.27
0.58
0.68
0.54
0.23
-0.05
-0.10
0.17
0.70
1.29
1.68
1.68
1.27
0.57
-0.18
-0.75
-0.97
-0.84
-0.44
0.10
0.62
1.02
1.23
1.22
1.04
0.77
0.48
0.26
0.11
0.02
-0.05
-0.14
-0.22
-0.22
-0.11
0.12
0.38
0.61
0.75
0.80
0.83
0.87
0.95
0.98
0.89
0.62
0.19
-0.32
-0.80
-1.18
-1.39
-1.42
-1.28
-0.96
-0.52
-0.07
0.27
0.39
0.26
-0.11
-0.59
-1.05
-1.37
-1.53
-1.50
-1.30
-0.94
-0.47
0.09
0.61
1.01
1.28
1.42
1.48
1.51
1.52
1.50
1.42
1.30
1.14
0.95
0.71
0.45
0.17
-0.09
-0.29
-0.42
-0.49
-0.51
-0.46
-0.32
-0.10
0.15
0.30
0.24
-0.04
-0.41
-0.71
-0.79
-0.63
-0.38
-0.17
-0.13
-0.22
-0.33
-0.36
-0.25
-0.06
0.14
0.24
0.26
0.21
0.14
0.08
0.03
-0.04
-0.11
-0.14
-0.11
-0.01
0.16
0.37
0.60
0.89
1.26
1.70
2.13
2.37
2.29
1.87
1.19
0.46
-0.15
-0.56
-0.82
-1.01
-1.18
-1.36
-1.48
-1.51
-1.49
-1.49
-1.54
-1.63
-1.67
-1.55
-1.26
-0.82
-0.33
0.09
0.37
0.45
0.33
0.10
-0.14
-0.26
-0.24
-0.14
-0.12
-0.29
-0.67
-1.11
-1.40
-1.31
-0.85
-0.15
0.53
0.99
1.16
1.10
0.92
0.70
0.45
0.18
-0.09
-0.29
-0.34
-0.22
0.02
0.26
0.47
0.66
0.90
1.23
1.60
1.86
1.89
1.67
1.26
0.84
0.52
0.32
0.16
-0.05
-0.33
-0.60
-0.76
-0.76
-0.62
-0.44
-0.32
-0.30
-0.34
-0.41
-0.45
-0.46
-0.42
-0.31
-0.09
0.22
0.59
0.92
1.12
1.14
0.98
0.69
0.31
-0.09
-0.45
-0.73
-0.89
-0.88
-0.67
-0.29
0.17
0.56
0.72
0.58
0.16
-0.36
-0.75
-0.82
-0.55
-0.06
0.41
0.66
0.63
0.38
0.10
-0.06
-0.06
0.03
0.09
0.02
-0.20
-0.50
-0.77
-0.91
-0.89
-0.67
-0.32
0.10
0.50
0.79
0.93
0.92
0.83
0.73
0.71
0.80
0.98
1.22
1.49
1.76
1.96
2.04
1.92
1.57
1.04
0.48
0.06
-0.11
-0.06
0.07
0.10
-0.12
-0.56
-1.12
-1.63
-1.95
-2.05
-1.95
-1.72
-1.42
-1.10
-0.75
-0.38
0.03
0.42
0.75
0.93
0.94
0.79
0.55
0.28
0.03
-0.18
-0.32
-0.41
-0.41
-0.29
-0.08
0.18
0.40
0.51
0.50
0.37
0.19
0.03
-0.06
-0.05
0.05
0.19
0.31
0.32
0.22
0.04
-0.09
-0.09
0.08
0.35
0.57
0.60
0.39
0.01
-0.41
-0.71
-0.81
-0.74
-0.53
-0.29
-0.06
0.11
0.19
0.18
0.05
-0.17
-0.41
-0.61
-0.70
-0.66
-0.51
-0.31
-0.18
-0.21
-0.45
-0.91
-1.43
-1.83
-1.94
-1.70
-1.18
-0.58
-0.09
0.17
0.21
0.13
0.05
0.03
0.10
0.28
0.56
0.91
1.31
1.65
1.83
1.79
1.49
1.01
0.47
-0.00
-0.31
-0.41
-0.29
-0.01
0.34
0.65
0.76
0.65
0.35
-0.01
-0.25
-0.26
-0.00
0.43
0.89
1.24
1.39
1.35
1.16
0.91
0.63
0.34
0.05
-0.20
-0.35
-0.38
-0.30
-0.18
-0.09
-0.08
-0.15
-0.26
-0.35
-0.38
-0.34
-0.25
-0.16
-0.11
-0.09
-0.09
-0.06
0.06
0.24
0.45
0.61
0.67
0.61
0.43
0.17
-0.15
-0.51
-0.88
-1.21
-1.43
-1.46
-1.28
-0.95
-0.57
-0.23
0.01
0.14
0.17
0.15
0.05
-0.12
-0.36
-0.62
-0.81
-0.85
-0.73
-0.49
-0.24
-0.06
-0.02
-0.15
-0.40
-0.69
-0.90
-0.97
-0.81
-0.42
0.14
0.75
1.28
1.60
1.65
1.45
1.13
0.81
0.59
0.53
0.62
0.79
0.95
1.05
1.09
1.10
1.11
1.13
1.14
1.09
0.99
0.82
0.65
0.51
0.44
0.42
0.37
0.21
-0.10
-0.54
-0.98
-1.32
-1.48
-1.44
-1.27
-1.06
-0.91
-0.82
-0.74
-0.59
-0.32
0.01
0.33
0.52
0.54
0.42
0.30
0.27
0.37
0.52
0.61
0.53
0.30
-0.01
-0.29
-0.46
-0.52
-0.55
-0.61
-0.73
-0.85
-0.89
-0.79
-0.52
-0.13
0.32
0.71
0.95
1.00
0.87
0.70
0.57
0.58
0.70
0.83
0.83
0.65
0.35
0.04
-0.16
-0.20
-0.17
-0.19
-0.35
-0.62
-0.88
-0.99
-0.88
-0.59
-0.25
0.01
0.14
0.18
0.18
0.20
0.24
0.27
0.27
0.26
0.27
0.32
0.34
0.27
0.03
-0.37
-0.82
-1.16
-1.25
-1.02
-0.55
-0.01
0.42
0.63
0.65
0.62
0.64
0.79
0.97
1.01
0.76
0.22
-0.46
-1.00
-1.17
-0.93
-0.41
0.12
0.44
0.47
0.25
-0.05
-0.35
-0.62
-0.92
-1.27
-1.64
-1.89
-1.90
-1.60
-1.03
-0.37
0.23
0.65
0.88
0.95
0.94
0.84
0.64
0.37
0.08
-0.09
-0.03
0.30
0.83
1.39
1.77
1.89
1.71
1.32
0.81
0.27
-0.23
-0.66
-0.95
-1.11
-1.14
-1.11
-1.09
-1.10
-1.14
-1.13
-1.03
-0.84
-0.58
-0.34
-0.12
0.09
0.33
0.60
0.81
0.90
0.80
0.56
0.32
0.26
0.46
0.86
1.27
1.45
1.27
0.77
0.14
-0.34
-0.48
-0.23
0.27
0.82
1.23
1.41
1.40
1.29
1.18
1.05
0.81
0.40
-0.16
-0.73
-1.16
-1.30
-1.11
-0.71
-0.22
0.22
0.53
0.68
0.70
0.61
0.50
0.39
0.28
0.14
-0.06
-0.33
-0.62
-0.83
-0.87
-0.70
-0.37
-0.02
0.20
0.18
-0.06
-0.41
-0.70
-0.78
-0.64
-0.41
-0.27
-0.36
-0.68
-1.08
-1.31
-1.22
-0.80
-0.20
0.40
0.84
1.10
1.27
1.40
1.48
1.46
1.27
0.91
0.49
0.14
-0.03
-0.05
-0.03
-0.11
-0.36
-0.74
-1.07
-1.23
-1.15
-0.89
-0.58
-0.35
-0.22
-0.18
-0.16
-0.13
-0.12
-0.14
-0.16
-0.08
0.16
0.54
0.90
1.04
0.84
0.34
-0.24
-0.66
-0.75
-0.56
-0.25
-0.04
0.02
0.00
0.04
0.22
0.50
0.72
0.75
0.61
0.41
0.32
0.43
0.65
0.85
0.86
0.68
0.37
0.07
-0.16
-0.35
-0.57
-0.87
-1.19
-1.40
-1.41
-1.19
-0.86
-0.57
-0.45
-0.48
-0.55
-0.55
-0.37
-0.03
0.36
0.70
0.88
0.89
0.74
0.50
0.23
0.01
-0.15
-0.22
-0.25
-0.25
-0.24
-0.22
-0.17
-0.08
0.03
0.14
0.26
0.38
0.53
0.71
0.91
1.07
1.10
0.97
0.70
0.40
0.18
0.14
0.27
0.48
0.66
0.68
0.50
0.15
-0.28
-0.69
-1.02
-1.33
-1.65
-1.97
-2.28
-2.42
-2.30
-1.92
-1.35
-0.78
-0.34
-0.10
0.01
0.05
0.11
0.18
0.19
0.11
-0.03
-0.15
-0.14
0.01
0.19
0.30
0.22
-0.02
-0.25
-0.29
-0.01
0.59
1.39
2.16
2.67
2.84
2.68
2.32
1.94
1.65
1.43
1.22
0.92
0.52
0.07
-0.32
-0.52
-0.51
-0.34
-0.13
0.02
0.05
-0.04
-0.20
-0.33
-0.39
-0.36
-0.27
-0.22
-0.25
-0.41
-0.64
-0.89
-1.12
-1.33
-1.55
-1.80
-2.01
-2.05
-1.84
-1.33
-0.61
0.15
0.75
1.12
1.24
1.20
1.17
1.22
1.38
1.59
1.72
1.67
1.43
1.03
0.60
0.24
-0.02
-0.23
-0.46
-0.75
-1.03
-1.20
-1.16
-0.88
-0.43
-0.00
0.25
0.24
-0.01
-0.39
-0.69
-0.82
-0.73
-0.50
-0.24
-0.03
0.08
0.18
0.28
0.43
0.56
0.59
0.50
0.33
0.22
0.23
0.36
0.45
0.33
-0.13
-0.85
-1.55
-1.93
-1.78
-1.10
-0.12
0.81
1.44
1.64
1.50
1.25
1.10
1.15
1.40
1.70
1.83
1.65
1.09
0.23
-0.75
-1.65
-2.30
-2.63
-2.64
-2.42
-2.04
-1.60
-1.18
-0.83
-0.59
-0.49
-0.47
-0.45
-0.30
0.02
0.45
0.90
1.22
1.34
1.25
1.00
0.69
0.38
0.12
-0.09
-0.20
-0.19
-0.07
0.10
0.24
0.27
0.20
0.09
0.02
0.06
0.20
0.41
0.63
0.85
1.06
1.21
1.23
1.08
0.73
0.25
-0.23
-0.57
-0.69
-0.61
-0.40
-0.13
0.11
0.27
0.31
0.21
-0.02
-0.29
-0.53
-0.68
-0.73
-0.72
-0.69
-0.65
-0.58
-0.42
-0.18
0.11
0.39
0.64
0.83
0.97
1.02
0.89
0.52
-0.12
-0.92
-1.69
-2.20
-2.29
-1.95
-1.32
-0.57
0.12
0.64
0.93
0.97
0.77
0.39
-0.07
-0.46
-0.59
-0.45
-0.12
0.23
0.40
0.30
-0.01
-0.38
-0.63
-0.66
-0.48
-0.11
0.40
0.99
1.56
2.00
2.11
1.83
1.21
0.46
-0.13
-0.36
-0.18
0.30
0.82
1.19
1.31
1.19
0.96
0.72
0.53
0.41
0.32
0.26
0.19
0.16
0.12
0.07
-0.03
-0.21
-0.44
-0.63
-0.70
-0.63
-0.43
-0.23
-0.13
-0.16
-0.31
-0.50
-0.66
-0.79
-0.93
-1.13
-1.33
-1.43
-1.31
-0.94
-0.42
0.05
0.26
0.16
-0.15
-0.41
-0.37
0.06
0.77
1.43
1.71
1.41
0.60
-0.47
-1.41
-1.92
-1.93
-1.55
-1.05
-0.62
-0.36
-0.23
-0.10
0.11
0.39
0.66
0.81
0.77
0.60
0.38
0.23
0.19
0.23
0.27
0.23
0.11
-0.05
-0.13
-0.04
0.27
0.73
1.23
1.61
1.78
1.70
1.44
1.09
0.73
0.37
0.03
-0.31
-0.57
-0.70
-0.66
-0.46
-0.23
-0.09
-0.14
-0.40
-0.80
-1.22
-1.53
-1.62
-1.45
-1.02
-0.39
0.33
1.01
1.48
1.66
1.47
1.01
0.42
-0.10
-0.40
-0.46
-0.39
-0.36
-0.50
-0.81
-1.18
-1.40
-1.33
-0.95
-0.35
0.29
0.82
1.17
1.37
1.45
1.51
1.52
1.46
1.24
0.80
0.18
-0.50
-1.10
-1.49
-1.64
-1.64
-1.57
-1.55
-1.54
-1.50
-1.38
-1.16
-0.88
-0.61
-0.40
-0.26
-0.17
-0.08
0.07
0.29
0.61
0.97
1.28
1.46
1.48
1.39
1.29
1.32
1.50
1.73
1.84
1.65
1.08
0.25
-0.67
-1.45
-1.92
-2.05
-1.88
-1.53
-1.13
-0.80
-0.60
-0.54
-0.59
-0.67
-0.69
-0.62
-0.45
-0.17
0.14
0.45
0.68
0.75
0.57
0.19
-0.28
-0.65
-0.71
-0.41
0.12
0.65
0.92
0.81
0.40
-0.10
-0.43
-0.41
-0.03
0.55
1.07
1.27
0.99
0.32
-0.51
-1.12
-1.24
-0.77
0.07
0.94
1.52
1.64
1.45
1.21
1.25
1.84
3.28
5.85
9.60
14.05
17.93
19.56
17.38
10.89
1.07
-9.85
-19.34
-25.52
-27.62
-25.97
-21.32
-14.54
-6.54
1.61
8.48
12.68
13.41
11.03
6.88
2.89
0.56
0.47
2.14
4.41
6.10
6.40
5.16
2.63
-0.56
-3.73
-6.28
-7.75
-8.18
-7.76
-6.87
-5.97
-5.58
-5.93
-7.17
-9.07
-11.08
-12.50
-12.79
-11.83
-10.06
-8.42
-7.91
-9.04
-11.53
-14.11
-15.28
-13.76
-9.44
-3.23
3.15
8.02
10.46
10.25
8.07
4.56
0.51
-3.73
-8.12
-12.57
-17.11
-21.39
-24.55
-25.58
-23.81
-18.97
-11.59
-2.34
8.29
20.09
32.95
46.08
57.80
65.75
67.82
63.36
53.60
41.12
28.80
18.55
10.86
5.21
0.80
-2.88
-5.89
-8.22
-9.78
-10.81
-11.38
-11.54
-11.27
-10.40
-9.01
-7.44
-6.08
-5.30
-5.22
-5.60
-6.07
-6.27
-5.96
-5.31
-4.61
-4.18
-4.18
-4.55
-4.98
-5.16
-4.84
-4.03
-3.04
-2.26
-2.10
-2.66
-3.87
-5.30
-6.35
-6.44
-5.16
-2.70
0.17
2.31
2.45
-0.26
-5.78
-13.23
-21.06
-27.33
-30.23
-28.53
-22.02
-11.78
-0.06
10.45
17.50
20.07
18.85
15.68
12.56
10.66
9.88
9.26
7.88
5.67
3.26
1.58
0.95
0.79
0.15
-1.71
-4.69
-7.81
-9.76
-9.44
-6.58
-1.94
3.03
6.87
8.52
7.85
5.55
2.81
0.78
0.14
0.73
1.90
2.86
3.13
2.76
2.23
1.99
2.18
2.67
3.10
3.25
3.13
2.81
2.49
2.37
2.38
2.38
2.22
1.78
1.11
0.40
-0.12
-0.26
-0.01
0.44
0.86
0.98
0.76
0.31
-0.21
-0.61
-0.81
-0.82
-0.68
-0.45
-0.17
0.11
0.31
0.37
0.23
-0.07
-0.42
-0.69
-0.81
-0.77
-0.62
-0.44
-0.29
-0.19
-0.11
-0.01
0.16
0.38
0.60
0.78
0.85
0.77
0.54
0.20
-0.20
-0.61
-0.96
-1.17
-1.18
-0.95
-0.50
0.08
0.65
1.08
1.26
1.18
0.83
0.27
-0.38
-0.94
-1.25
-1.21
-0.85
-0.36
0.04
0.19
0.07
-0.16
-0.28
-0.16
0.21
0.67
1.03
1.18
1.10
0.88
0.62
0.40
0.20
0.00
-0.21
-0.40
-0.52
-0.51
-0.37
-0.15
0.09
0.28
0.38
0.39
0.31
0.17
0.02
-0.09
-0.12
-0.06
0.05
0.14
0.13
-0.01
-0.23
-0.46
-0.65
-0.77
-0.86
-0.93
-0.96
-0.91
-0.77
-0.61
-0.51
-0.55
-0.72
-0.91
-1.00
-0.88
-0.56
-0.11
0.39
0.85
1.26
1.58
1.77
1.75
1.47
0.96
0.32
-0.28
-0.67
-0.77
-0.57
-0.14
0.36
0.77
0.94
0.81
0.42
-0.11
-0.58
-0.83
-0.77
-0.43
0.06
0.54
0.84
0.87
0.69
0.38
0.17
0.22
0.62
1.29
2.05
2.61
2.76
2.45
1.75
0.95
0.26
-0.03
0.37
1.71
4.16
7.29
10.17
11.51
10.29
6.39
0.75
-4.93
-9.14
-11.24
-11.70
-11.58
-11.78
-12.41
-12.92
-12.63
-11.23
-9.14
-7.04
-5.55
-4.75
-4.50
-4.58
-5.06
-6.20
-8.02
-10.17
-11.70
-11.63
-9.37
-5.14
0.02
4.85
8.26
9.89
10.04
9.40
8.60
7.98
7.50
6.99
6.36
5.69
5.19
4.99
5.10
5.34
5.45
5.23
4.62
3.73
2.82
2.16
1.91
2.09
2.51
2.88
2.95
2.59
1.90
1.09
0.43
0.03
-0.11
-0.12
-0.18
-0.36
-0.66
-0.99
-1.21
-1.22
-1.06
-0.82
-0.62
-0.61
-0.73
-0.94
-1.07
-1.05
-0.87
-0.64
-0.46
-0.41
-0.50
-0.59
-0.60
-0.42
-0.07
0.39
0.84
1.17
1.36
1.41
1.36
1.25
1.08
0.89
0.73
0.65
0.66
0.80
1.00
1.27
1.55
1.78
1.88
1.74
1.30
0.60
-0.19
-0.79
-0.98
-0.73
-0.20
0.28
0.50
0.39
0.07
-0.21
-0.32
-0.21
0.04
0.35
0.61
0.79
0.80
0.59
0.17
-0.40
-0.93
-1.25
-1.30
-1.16
-1.03
-1.09
-1.37
-1.75
-1.99
-1.89
-1.43
-0.76
-0.13
0.21
0.15
-0.25
-0.78
-1.20
-1.35
-1.16
-0.71
-0.10
0.53
1.11
1.59
1.93
2.13
2.19
2.20
2.34
2.81
3.73
5.03
6.40
7.36
7.40
6.26
4.04
1.23
-1.47
-3.49
-4.55
-4.76
-4.48
-4.08
-3.73
-3.44
-3.10
-2.64
-2.14
-1.76
-1.60
-1.63
-1.73
-1.74
-1.60
-1.37
-1.15
-1.00
-0.95
-0.98
-1.06
-1.24
-1.51
-1.83
-2.04
-2.02
-1.73
-1.32
-1.04
-1.07
-1.42
-1.88
-2.18
-2.16
-1.85
-1.47
-1.27
-1.37
-1.69
-2.08
-2.40
-2.61
-2.76
-2.97
-3.28
-3.64
-4.04
-4.35
-4.55
-4.74
-5.06
-5.66
-6.56
-7.55
-8.21
-8.07
-6.76
-4.27
-0.96
2.53
5.53
7.61
8.70
8.99
8.80
8.34
7.68
6.80
5.72
4.55
3.51
2.80
2.55
2.69
3.06
3.39
3.49
3.35
2.90
2.26
1.54
0.89
0.47
0.35
0.49
0.71
0.84
0.74
0.51
0.33
0.41
0.84
1.47
2.04
2.45
2.83
3.36
4.16
4.95
5.19
4.38
2.45
0.01
-1.99
-2.72
-2.00
-0.32
1.40
2.46
2.78
2.79
3.02
3.59
4.04
3.72
2.28
0.02
-2.27
-3.65
-3.70
-2.58
-1.03
0.17
0.57
0.23
-0.48
-1.15
-1.59
-1.76
-1.80
-1.74
-1.55
-1.23
-0.86
-0.65
-0.97
-2.09
-4.07
-6.51
-8.68
-9.73
-9.07
-6.70
-3.33
-0.04
2.18
2.90
2.41
1.44
0.77
0.78
1.28
1.79
1.90
1.55
0.99
0.63
0.71
1.14
1.56
1.61
1.08
0.12
-0.86
-1.41
-1.26
-0.47
0.63
1.58
2.05
1.97
1.56
1.09
0.81
0.80
0.92
1.01
0.94
0.69
0.31
-0.10
-0.50
-0.86
-1.16
-1.41
-1.61
-1.83
-2.14
-2.52
-2.83
-2.84
-2.34
-1.29
0.11
1.47
2.39
2.61
2.17
1.35
0.52
-0.02
-0.21
-0.10
0.15
0.40
0.59
0.70
0.73
0.67
0.53
0.34
0.16
0.03
-0.03
-0.05
-0.03
0.00
0.04
0.12
0.24
0.40
0.55
0.70
0.86
1.05
1.30
1.54
1.68
1.63
1.40
1.03
0.68
0.41
0.25
0.15
0.06
-0.01
-0.01
0.10
0.30
0.44
0.33
-0.13
-0.89
-1.69
-2.19
-2.19
-1.69
-0.89
-0.10
0.42
0.55
0.35
-0.05
-0.47
-0.78
-0.91
-0.86
-0.66
-0.35
-0.01
0.36
0.70
0.98
1.11
1.05
0.77
0.34
-0.10
-0.39
-0.40
-0.13
0.33
0.81
1.15
1.26
1.10
0.73
0.20
-0.39
-0.92
-1.21
-1.18
-0.82
-0.22
0.38
0.77
0.82
0.51
-0.02
-0.59
-1.03
-1.28
-1.36
-1.27
-1.06
-0.73
-0.34
0.03
0.31
0.43
0.41
0.35
0.34
0.42
0.60
0.79
0.90
0.93
0.87
0.78
0.66
0.49
0.21
-0.19
-0.64
-1.04
-1.23
-1.14
-0.82
-0.45
-0.26
-0.40
-0.84
-1.38
-1.73
-1.69
-1.28
-0.79
-0.59
-0.98
-1.99
-3.31
-4.54
-5.30
-5.40
-5.00
-4.39
-3.97
-4.14
-5.20
-7.34
-10.46
-14.07
-17.26
-18.90
-18.04
-14.39
-8.51
-1.64
4.72
9.38
11.85
12.35
11.51
10.03
8.39
6.78
5.22
3.76
2.39
1.19
0.15
-0.74
-1.46
-1.88
-1.82
-1.07
0.39
2.36
4.46
6.26
7.42
7.83
7.61
6.98
6.18
5.36
4.58
3.87
3.26
2.77
2.43
2.27
2.31
2.49
2.69
2.77
2.58
2.07
1.38
0.74
0.42
0.57
1.05
1.61
1.90
1.72
1.15
0.45
0.02
0.09
0.64
1.42
2.04
2.19
1.78
0.98
0.23
-0.04
0.46
1.73
3.41
4.91
5.67
5.37
4.14
2.56
1.41
1.46
3.30
7.22
13.21
20.67
28.20
33.74
35.07
30.74
20.97
7.83
-5.39
-15.53
-20.83
-21.50
-19.27
-16.23
-13.79
-12.21
-11.02
-9.68
-8.13
-6.79
-6.19
-6.55
-7.55
-8.54
-8.88
-8.24
-6.74
-4.88
-3.25
-2.33
-2.25
-2.87
-3.74
-4.37
-4.38
-3.71
-2.59
-1.49
-0.81
-0.73
-1.07
-1.42
-1.36
-0.73
0.28
1.22
1.69
1.51
0.79
-0.12
-0.85
-1.24
-1.31
-1.25
-1.22
-1.28
-1.38
-1.38
-1.18
-0.77
-0.23
0.30
0.70
0.89
0.90
0.83
0.75
0.70
0.67
0.60
0.45
0.22
-0.02
-0.19
-0.25
-0.17
-0.02
0.10
0.12
0.05
-0.05
-0.12
-0.13
-0.16
-0.28
-0.59
-1.02
-1.48
-1.79
-1.82
-1.57
-1.13
-0.67
-0.35
-0.26
-0.42
-0.74
-1.10
-1.39
-1.50
-1.38
-1.05
-0.57
-0.05
0.42
0.74
0.85
0.75
0.49
0.19
-0.02
-0.02
0.18
0.48
0.67
0.60
0.20
-0.38
-0.92
-1.20
-1.12
-0.77
-0.31
0.08
0.31
0.38
0.34
0.23
0.09
-0.07
-0.23
-0.36
-0.44
-0.45
-0.37
-0.19
0.13
0.60
1.19
1.77
2.20
2.36
2.23
1.91
1.56
1.32
1.21
1.18
1.11
0.92
0.60
0.19
-0.20
-0.48
-0.61
-0.58
-0.40
-0.14
0.16
0.43
0.61
0.67
0.62
0.50
0.39
0.34
0.33
0.32
0.20
-0.09
-0.51
-0.94
-1.24
-1.29
-1.09
-0.76
-0.43
-0.21
-0.12
-0.09
-0.06
-0.03
-0.03
-0.13
-0.30
-0.48
-0.55
-0.47
-0.29
-0.10
-0.00
-0.02
-0.09
-0.14
-0.11
-0.04
-0.02
-0.07
-0.19
-0.32
-0.35
-0.25
-0.08
0.07
0.08
-0.09
-0.37
-0.63
-0.75
-0.67
-0.44
-0.19
-0.04
-0.07
-0.21
-0.35
-0.38
-0.28
-0.09
0.09
0.17
0.11
-0.07
-0.28
-0.44
-0.49
-0.42
-0.25
-0.08
0.03
0.04
-0.03
-0.07
0.03
0.29
0.64
0.93
1.02
0.90
0.66
0.43
0.32
0.33
0.35
0.27
0.04
-0.26
-0.52
-0.61
-0.54
-0.37
-0.20
-0.11
-0.12
-0.23
-0.43
-0.72
-1.06
-1.38
-1.58
-1.54
-1.23
-0.73
-0.21
0.15
0.27
0.22
0.11
0.07
0.16
0.35
0.61
0.92
1.27
1.63
1.92
2.05
1.93
1.62
1.23
0.93
0.79
0.76
0.72
0.60
0.42
0.33
0.42
0.70
1.02
1.17
1.03
0.65
0.22
-0.04
0.02
0.31
0.59
0.62
0.29
-0.30
-0.88
-1.16
-1.01
-0.54
-0.01
0.31
0.30
0.03
-0.29
-0.53
-0.63
-0.72
-0.90
-1.23
-1.63
-1.95
-2.07
-1.99
-1.75
-1.46
-1.16
-0.87
-0.57
-0.26
0.01
0.20
0.27
0.24
0.12
-0.05
-0.24
-0.35
-0.35
-0.18
0.08
0.33
0.42
0.29
-0.04
-0.42
-0.65
-0.63
-0.41
-0.14
-0.03
-0.17
-0.50
-0.86
-1.06
-0.99
-0.69
-0.26
0.15
0.42
0.50
0.42
0.21
-0.04
-0.28
-0.45
-0.52
-0.48
-0.35
-0.16
0.03
0.20
0.36
0.54
0.73
0.93
1.07
1.11
0.99
0.72
0.40
0.17
0.15
0.35
0.70
1.01
1.17
1.14
1.03
0.97
1.07
1.32
1.56
1.64
1.47
1.11
0.70
0.37
0.18
0.07
-0.07
-0.31
-0.62
-0.90
-1.04
-0.96
-0.70
-0.33
0.03
0.31
0.44
0.41
0.21
-0.13
-0.56
-0.98
-1.28
-1.38
-1.26
-0.96
-0.64
-0.43
-0.44
-0.69
-1.08
-1.46
-1.60
-1.42
-0.90
-0.22
0.42
0.81
0.85
0.61
0.24
-0.04
-0.12
0.01
0.20
0.27
0.09
-0.28
-0.66
-0.84
-0.69
-0.26
0.23
0.53
0.54
0.32
0.08
0.03
0.26
0.68
1.09
1.29
1.23
0.96
0.66
0.46
0.42
0.49
0.56
0.56
0.48
0.39
0.34
0.34
0.34
0.24
-0.05
-0.48
-0.95
-1.29
-1.37
-1.19
-0.85
-0.53
-0.34
-0.29
-0.31
-0.27
-0.09
0.21
0.56
0.81
0.87
0.71
0.41
0.10
-0.13
-0.23
-0.23
-0.19
-0.20
-0.24
-0.28
-0.27
-0.20
-0.10
-0.01
0.01
-0.03
-0.11
-0.21
-0.37
-0.59
-0.87
-1.15
-1.30
-1.25
-0.98
-0.62
-0.32
-0.19
-0.25
-0.43
-0.59
-0.64
-0.57
-0.37
-0.07
0.33
0.77
1.19
1.44
1.40
1.07
0.59
0.19
0.03
0.17
0.42
0.60
0.52
0.20
-0.21
-0.54
-0.69
-0.68
-0.59
-0.47
-0.33
-0.11
0.21
0.58
0.88
1.01
0.94
0.72
0.46
0.22
0.06
-0.01
0.02
0.16
0.41
0.71
0.96
1.05
0.90
0.52
-0.02
-0.57
-1.02
-1.30
-1.39
-1.33
-1.21
-1.08
-0.99
-0.95
-0.91
-0.79
-0.57
-0.23
0.13
0.35
0.36
0.14
-0.19
-0.45
-0.50
-0.32
0.01
0.35
0.58
0.63
0.54
0.39
0.25
0.20
0.25
0.41
0.63
0.87
1.07
1.19
1.15
0.99
0.74
0.42
0.10
-0.21
-0.45
-0.63
-0.75
-0.83
-0.90
-0.97
-1.00
-0.97
-0.84
-0.61
-0.36
-0.18
-0.17
-0.33
-0.64
-0.97
-1.21
-1.27
-1.14
-0.84
-0.43
0.04
0.54
0.99
1.32
1.47
1.38
1.08
0.65
0.25
0.01
-0.00
0.18
0.45
0.68
0.80
0.79
0.71
0.61
0.49
0.39
0.25
0.09
-0.08
-0.22
-0.31
-0.33
-0.32
-0.28
-0.18
0.00
0.24
0.51
0.71
0.78
0.68
0.47
0.24
0.10
0.12
0.30
0.59
0.87
1.03
0.96
0.63
0.06
-0.63
-1.26
-1.65
-1.66
-1.35
-0.84
-0.35
-0.06
-0.04
-0.26
-0.63
-1.05
-1.44
-1.77
-2.01
-2.18
-2.21
-2.06
-1.71
-1.18
-0.56
0.04
0.52
0.84
0.99
1.01
0.93
0.80
0.65
0.49
0.40
0.38
0.47
0.65
0.83
0.94
0.93
0.82
0.71
0.71
0.86
1.11
1.34
1.40
1.24
0.88
0.43
0.03
-0.25
-0.40
-0.42
-0.33
-0.16
0.06
0.25
0.35
0.31
0.19
0.08
0.08
0.17
0.24
0.19
-0.01
-0.26
-0.38
-0.23
0.18
0.65
0.94
0.90
0.56
0.10
-0.26
-0.42
-0.42
-0.45
-0.63
-0.99
-1.39
-1.60
-1.49
-1.04
-0.43
0.09
0.35
0.33
0.16
0.02
0.02
0.14
0.25
0.23
0.02
-0.28
-0.55
-0.69
-0.68
-0.59
-0.48
-0.38
-0.28
-0.14
0.02
0.18
0.26
0.27
0.23
0.21
0.23
0.25
0.21
0.06
-0.17
-0.36
-0.37
-0.13
0.33
0.81
1.11
1.06
0.66
0.08
-0.45
-0.70
-0.61
-0.29
0.08
0.33
0.41
0.38
0.34
0.40
0.51
0.61
0.61
0.52
0.41
0.37
0.40
0.43
0.35
0.11
-0.22
-0.48
-0.51
-0.28
0.12
0.46
0.53
0.24
-0.31
-0.92
-1.35
-1.49
-1.33
-0.96
-0.48
0.01
0.47
0.84
1.05
1.04
0.81
0.44
0.07
-0.15
-0.19
-0.11
-0.07
-0.17
-0.42
-0.68
-0.81
-0.73
-0.50
-0.30
-0.28
-0.52
-0.93
-1.30
-1.44
-1.26
-0.81
-0.28
0.14
0.35
0.36
0.26
0.14
0.07
0.05
0.08
0.16
0.30
0.52
0.81
1.11
1.35
1.43
1.32
1.06
0.73
0.46
0.32
0.31
0.38
0.42
0.34
0.12
-0.19
-0.45
-0.59
-0.53
-0.35
-0.13
-0.01
-0.07
-0.27
-0.53
-0.72
-0.77
-0.64
-0.40
-0.14
0.02
0.07
0.03
0.00
0.05
0.18
0.33
0.39
0.30
0.05
-0.25
-0.48
-0.51
-0.34
-0.00
0.36
0.64
0.72
0.57
0.27
-0.07
-0.33
-0.43
-0.40
-0.34
-0.34
-0.47
-0.66
-0.79
-0.78
-0.60
-0.37
-0.18
-0.10
-0.08
-0.01
0.19
0.50
0.77
0.84
0.63
0.19
-0.31
-0.68
-0.85
-0.84
-0.74
-0.58
-0.35
-0.01
0.46
0.95
1.33
1.47
1.34
1.01
0.62
0.30
0.09
-0.03
-0.07
-0.01
0.17
0.45
0.76
0.94
0.91
0.65
0.28
-0.05
-0.21
-0.25
-0.24
-0.32
-0.55
-0.90
-1.25
-1.51
-1.57
-1.42
-1.06
-0.52
0.13
0.75
1.17
1.30
1.08
0.64
0.17
-0.14
-0.20
-0.02
0.25
0.45
0.44
0.21
-0.18
-0.60
-0.93
-1.06
-0.95
-0.63
-0.21
0.20
0.51
0.69
0.75
0.78
0.88
1.09
1.37
1.64
1.78
1.72
1.44
0.98
0.42
-0.12
-0.54
-0.76
-0.74
-0.52
-0.22
-0.02
-0.03
-0.27
-0.62
-0.81
-0.62
0.07
1.09
2.12
2.79
2.88
2.50
2.00
1.85
2.48
4.10
6.68
9.99
13.54
16.52
17.92
16.81
12.81
6.45
-0.88
-7.34
-11.42
-12.57
-11.33
-8.92
-6.60
-5.08
-4.34
-3.96
-3.59
-3.16
-2.93
-3.15
-3.85
-4.73
-5.35
-5.32
-4.61
-3.53
-2.49
-1.95
-2.02
-2.56
-3.17
-3.44
-3.09
-2.13
-0.81
0.44
1.28
1.48
1.11
0.44
-0.23
-0.65
-0.76
-0.66
-0.52
-0.46
-0.51
-0.58
-0.60
-0.50
-0.33
-0.19
-0.23
-0.50
-0.98
-1.51
-1.91
-2.02
-1.85
-1.47
-1.10
-0.85
-0.79
-0.85
-0.90
-0.87
-0.72
-0.48
-0.17
0.20
0.60
1.02
1.35
1.50
1.41
1.12
0.74
0.38
0.16
0.14
0.32
0.62
0.96
1.22
1.35
1.33
1.26
1.20
1.25
1.39
1.55
1.64
1.59
1.42
1.17
0.87
0.54
0.16
-0.27
-0.70
-1.01
-1.12
-1.03
-0.83
-0.62
-0.52
-0.57
-0.72
-0.90
-1.06
-1.18
-1.24
-1.29
-1.29
-1.21
-1.03
-0.72
-0.34
0.06
0.43
0.75
0.95
0.99
0.82
0.41
-0.18
-0.82
-1.35
-1.64
-1.63
-1.38
-0.98
-0.53
-0.13
0.19
0.42
0.63
0.84
1.11
1.42
1.74
1.95
1.96
1.75
1.35
0.84
0.31
-0.17
-0.59
-0.93
-1.20
-1.33
-1.30
-1.10
-0.77
-0.38
-0.05
0.12
0.07
-0.20
-0.58
-0.91
-1.01
-0.82
-0.40
0.07
0.44
0.59
0.56
0.47
0.42
0.44
0.50
0.51
0.42
0.28
0.15
0.04
-0.05
-0.18
-0.39
-0.62
-0.77
-0.73
-0.46
-0.03
0.40
0.69
0.78
0.74
0.65
0.59
0.58
0.59
0.61
0.59
0.56
0.56
0.56
0.59
0.58
0.49
0.29
-0.01
-0.36
-0.67
-0.86
-0.86
-0.74
-0.55
-0.44
-0.46
-0.62
-0.83
-0.98
-1.00
-0.88
-0.68
-0.49
-0.35
-0.28
-0.28
-0.30
-0.32
-0.35
-0.38
-0.41
-0.41
-0.37
-0.26
-0.11
0.08
0.25
0.40
0.52
0.62
0.71
0.75
0.75
0.73
0.75
0.90
1.16
1.47
1.72
1.80
1.68
1.43
1.16
0.98
0.90
0.87
0.78
0.54
0.18
-0.26
-0.64
-0.91
-1.04
-1.06
-1.04
-1.02
-1.02
-1.02
-1.01
-0.99
-0.96
-0.92
-0.89
-0.84
-0.76
-0.63
-0.43
-0.19
0.10
0.40
0.65
0.79
0.73
0.40
-0.17
-0.89
-1.58
-2.01
-2.05
-1.67
-0.98
-0.17
0.55
1.06
1.32
1.42
1.45
1.47
1.46
1.35
1.07
0.63
0.14
-0.21
-0.28
-0.04
0.38
0.78
0.94
0.78
0.35
-0.21
-0.73
-1.07
-1.17
-1.01
-0.60
-0.05
0.54
1.00
1.20
1.10
0.72
0.20
-0.29
-0.64
-0.76
-0.69
-0.50
-0.32
-0.21
-0.24
-0.36
-0.53
-0.70
-0.83
-0.92
-0.95
-0.90
-0.73
-0.45
-0.11
0.22
0.46
0.55
0.51
0.39
0.23
0.07
-0.07
-0.16
-0.18
-0.11
0.04
0.20
0.31
0.35
0.33
0.29
0.28
0.32
0.37
0.38
0.30
0.12
-0.14
-0.41
-0.63
-0.69
-0.56
-0.25
0.16
0.56
0.85
1.02
1.11
1.24
1.46
1.72
1.94
1.95
1.69
1.17
0.56
0.05
-0.22
-0.23
-0.03
0.24
0.44
0.51
0.41
0.22
0.00
-0.17
-0.24
-0.24
-0.20
-0.17
-0.17
-0.23
-0.33
-0.50
-0.74
-1.05
-1.39
-1.67
-1.78
-1.68
-1.45
-1.19
-1.04
-1.03
-1.06
-1.03
-0.89
-0.65
-0.45
-0.37
-0.42
-0.47
-0.38
-0.07
0.35
0.72
0.85
0.71
0.39
0.09
-0.06
-0.02
0.15
0.35
0.53
0.69
0.84
0.99
1.11
1.12
0.97
0.68
0.33
0.03
-0.10
-0.07
0.09
0.25
0.32
0.26
0.09
-0.12
-0.28
-0.35
-0.36
-0.38
-0.44
-0.55
-0.63
-0.57
-0.34
0.00
0.37
0.61
0.63
0.47
0.21
-0.02
-0.16
-0.19
-0.17
-0.16
-0.15
-0.12
-0.03
0.12
0.27
0.36
0.36
0.30
0.23
0.18
0.16
0.11
0.02
-0.13
-0.28
-0.33
-0.24
-0.06
0.10
0.13
-0.06
-0.39
-0.72
-0.88
-0.79
-0.45
0.04
0.54
0.96
1.24
1.36
1.32
1.08
0.66
0.09
-0.52
-1.07
-1.46
-1.70
-1.80
-1.82
-1.77
-1.62
-1.37
-1.03
-0.71
-0.46
-0.34
-0.29
-0.23
-0.10
0.08
0.25
0.37
0.45
0.54
0.67
0.83
0.92
0.84
0.55
0.18
-0.11
-0.12
0.18
0.70
1.23
1.58
1.67
1.52
1.24
0.93
0.65
0.44
0.27
0.14
0.06
0.03
0.07
0.15
0.23
0.29
0.29
0.25
0.18
0.09
0.03
0.03
0.11
0.27
0.48
0.67
0.72
0.60
0.31
-0.04
-0.34
-0.48
-0.44
-0.28
-0.11
-0.03
-0.02
-0.03
0.04
0.21
0.46
0.67
0.71
0.54
0.21
-0.13
-0.33
-0.34
-0.24
-0.21
-0.37
-0.76
-1.25
-1.66
-1.84
-1.80
-1.62
-1.48
-1.47
-1.59
-1.76
-1.88
-1.89
-1.78
-1.57
-1.25
-0.87
-0.46
-0.10
0.17
0.30
0.29
0.17
0.02
-0.11
-0.17
-0.14
-0.05
0.04
0.08
0.02
-0.08
-0.11
0.04
0.39
0.84
1.22
1.39
1.31
1.13
1.02
1.14
1.46
1.81
2.02
1.95
1.64
1.23
0.89
0.71
0.72
0.84
0.97
1.02
0.95
0.74
0.44
0.12
-0.15
-0.35
-0.48
-0.57
-0.66
-0.75
-0.79
-0.74
-0.58
-0.38
-0.21
-0.12
-0.10
-0.10
-0.06
0.03
0.15
0.22
0.18
0.07
-0.10
-0.29
-0.49
-0.70
-0.92
-1.08
-1.11
-0.95
-0.60
-0.15
0.23
0.42
0.41
0.27
0.10
-0.01
-0.05
-0.02
0.04
0.12
0.23
0.34
0.40
0.40
0.30
0.19
0.12
0.14
0.23
0.32
0.32
0.25
0.17
0.17
0.30
0.49
0.58
0.47
0.10
-0.42
-0.91
-1.21
-1.23
-0.97
-0.50
0.03
0.46
0.64
0.46
-0.07
-0.77
-1.40
-1.66
-1.43
-0.80
-0.02
0.63
0.95
0.93
0.71
0.44
0.23
0.07
-0.08
-0.25
-0.42
-0.55
-0.58
-0.55
-0.48
-0.40
-0.34
-0.26
-0.11
0.12
0.39
0.61
0.67
0.53
0.22
-0.16
-0.47
-0.61
-0.53
-0.29
0.04
0.32
0.46
0.46
0.35
0.21
0.06
-0.10
-0.29
-0.51
-0.71
-0.78
-0.61
-0.17
0.46
1.08
1.47
1.50
1.22
0.81
0.50
0.49
0.75
1.13
1.38
1.37
1.11
0.77
0.54
0.49
0.57
0.62
0.55
0.38
0.21
0.15
0.20
0.25
0.18
-0.08
-0.49
-0.90
-1.17
-1.27
-1.27
-1.27
-1.31
-1.41
-1.51
-1.55
-1.52
-1.45
-1.38
-1.31
-1.21
-1.06
-0.83
-0.56
-0.32
-0.17
-0.15
-0.23
-0.34
-0.41
-0.38
-0.23
0.01
0.28
0.55
0.77
0.92
0.99
0.98
0.86
0.63
0.29
-0.08
-0.35
-0.43
-0.24
0.15
0.59
0.94
1.08
1.05
0.93
0.85
0.85
0.92
1.01
1.06
1.05
0.98
0.84
0.61
0.27
-0.15
-0.57
-0.88
-1.01
-0.97
-0.82
-0.61
-0.37
-0.13
0.10
0.31
0.46
0.50
0.45
0.33
0.22
0.18
0.24
0.38
0.55
0.64
0.61
0.44
0.21
0.03
-0.02
0.05
0.12
0.07
-0.21
-0.71
-1.28
-1.74
-1.95
-1.86
-1.56
-1.17
-0.79
-0.47
-0.21
-0.02
0.12
0.15
0.10
-0.03
-0.16
-0.24
-0.25
-0.18
-0.08
0.04
0.15
0.28
0.41
0.50
0.47
0.35
0.18
0.06
0.10
0.31
0.62
0.90
1.06
1.06
1.01
0.98
0.99
0.99
0.83
0.50
0.05
-0.38
-0.64
-0.72
-0.67
-0.64
-0.69
-0.83
-0.95
-0.95
-0.78
-0.52
-0.30
-0.18
-0.16
-0.15
-0.07
0.13
0.39
0.60
0.68
0.61
0.45
0.30
0.23
0.24
0.27
0.26
0.17
0.01
-0.16
-0.29
-0.39
-0.44
-0.49
-0.56
-0.66
-0.81
-0.98
-1.12
-1.14
-0.99
-0.64
-0.15
0.32
0.65
0.73
0.58
0.30
0.04
-0.06
0.04
0.34
0.75
1.16
1.48
1.64
1.62
1.43
1.12
0.77
0.43
0.18
0.04
0.03
0.16
0.34
0.47
0.44
0.17
-0.30
-0.84
-1.26
-1.41
-1.24
-0.84
-0.40
-0.06
0.11
0.13
0.07
-0.01
-0.08
-0.14
-0.14
-0.07
0.12
0.39
0.69
0.92
1.01
0.93
0.67
0.26
-0.23
-0.76
-1.28
-1.69
-1.92
-1.92
-1.70
-1.34
-0.93
-0.62
-0.44
-0.41
-0.45
-0.48
-0.41
-0.24
-0.01
0.21
0.34
0.38
0.36
0.35
0.40
0.47
0.51
0.48
0.38
0.28
0.24
0.27
0.31
0.27
0.10
-0.14
-0.37
-0.44
-0.30
0.02
0.38
0.65
0.73
0.61
0.38
0.10
-0.12
-0.24
-0.27
-0.20
-0.02
0.27
0.66
1.08
1.39
1.45
1.18
0.67
0.12
-0.23
-0.27
-0.04
0.24
0.36
0.20
-0.16
-0.54
-0.73
-0.69
-0.52
-0.41
-0.50
-0.78
-1.13
-1.36
-1.34
-1.09
-0.71
-0.34
-0.10
-0.02
-0.07
-0.15
-0.17
-0.05
0.18
0.51
0.86
1.16
1.35
1.43
1.39
1.30
1.21
1.16
1.17
1.20
1.16
0.98
0.58
-0.00
-0.66
-1.20
-1.51
-1.52
-1.29
-0.93
-0.52
-0.12
0.25
0.59
0.81
0.84
0.62
0.17
-0.35
-0.78
-0.99
-0.94
-0.72
-0.45
-0.23
-0.08
0.06
0.27
0.57
0.89
1.14
1.21
1.08
0.82
0.51
0.25
0.05
-0.13
-0.33
-0.55
-0.72
-0.74
-0.59
-0.32
-0.08
-0.03
-0.25
-0.72
-1.27
-1.73
-1.97
-1.98
-1.80
-1.56
-1.35
-1.19
-1.06
-0.90
-0.65
-0.29
0.15
0.57
0.86
0.94
0.83
0.59
0.38
0.30
0.39
0.60
0.84
1.00
1.01
0.92
0.76
0.61
0.49
0.39
0.33
0.31
0.39
0.58
0.84
1.08
1.16
1.02
0.67
0.25
-0.10
-0.28
-0.28
-0.18
-0.10
-0.11
-0.20
-0.32
-0.40
-0.46
-0.52
-0.65
-0.81
-0.92
-0.86
-0.56
-0.09
0.42
0.83
1.05
1.09
1.05
1.01
1.00
0.98
0.86
0.62
0.31
-0.04
-0.33
-0.57
-0.80
-1.06
-1.31
-1.47
-1.45
-1.23
-0.88
-0.51
-0.26
-0.21
-0.32
-0.54
-0.76
-0.89
-0.88
-0.68
-0.35
0.06
0.42
0.65
0.72
0.65
0.51
0.35
0.20
0.05
-0.09
-0.17
-0.17
-0.08
0.03
0.06
-0.02
-0.18
-0.35
-0.44
-0.41
-0.32
-0.28
-0.32
-0.44
-0.52
-0.46
-0.24
0.11
0.48
0.79
0.99
1.08
1.07
0.93
0.65
0.25
-0.21
-0.61
-0.85
-0.88
-0.72
-0.47
-0.22
-0.03
0.09
0.19
0.29
0.43
0.63
0.87
1.11
1.29
1.31
1.15
0.81
0.40
0.03
-0.21
-0.31
-0.30
-0.26
-0.17
-0.02
0.20
0.47
0.68
0.71
0.49
0.07
-0.36
-0.62
-0.59
-0.32
-0.02
0.12
-0.00
-0.34
-0.70
-0.89
-0.84
-0.58
-0.23
0.13
0.44
0.73
0.97
1.10
1.02
0.66
0.09
-0.51
-0.93
-1.01
-0.75
-0.24
0.31
0.72
0.85
0.67
0.24
-0.29
-0.74
-0.95
-0.85
-0.49
-0.02
0.43
0.74
0.90
0.90
0.77
0.55
0.26
-0.04
-0.26
-0.32
-0.22
-0.05
0.04
-0.10
-0.57
-1.30
-2.14
-2.81
-3.10
-2.87
-2.17
-1.18
-0.13
0.76
1.42
1.86
2.15
2.34
2.46
2.45
2.26
1.86
1.31
0.72
0.24
-0.03
-0.05
0.13
0.38
0.52
0.44
0.10
-0.46
-1.11
-1.72
-2.16
-2.37
-2.37
-2.20
-1.94
-1.60
-1.19
-0.75
-0.27
0.13
0.37
0.39
0.21
-0.08
-0.35
-0.51
-0.57
-0.55
-0.54
-0.55
-0.52
-0.40
-0.13
0.26
0.69
1.05
1.31
1.46
1.54
1.56
1.55
1.46
1.32
1.16
1.04
1.01
1.01
0.91
0.56
-0.11
-1.08
-2.23
-3.38
-4.43
-5.25
-5.74
-5.79
-5.28
-4.18
-2.59
-0.78
0.90
2.14
2.80
2.93
2.76
2.54
2.45
2.49
2.55
2.48
2.17
1.66
1.05
0.50
0.12
-0.05
-0.05
0.07
0.26
0.49
0.74
0.97
1.11
1.11
0.96
0.70
0.42
0.22
0.17
0.25
0.42
0.55
0.59
0.48
0.23
-0.10
-0.42
-0.66
-0.77
-0.74
-0.59
-0.36
-0.11
0.13
0.33
0.47
0.53
0.51
0.39
0.20
-0.04
-0.28
-0.48
-0.62
-0.68
-0.64
-0.49
-0.22
0.14
0.53
0.86
1.03
1.01
0.81
0.47
0.06
-0.34
-0.68
-0.87
-0.87
-0.69
-0.39
-0.10
0.07
0.06
-0.08
-0.26
-0.38
-0.39
-0.27
-0.09
0.06
0.09
-0.02
-0.28
-0.58
-0.81
-0.87
-0.70
-0.36
0.01
0.28
0.38
0.31
0.18
0.10
0.14
0.32
0.61
0.91
1.17
1.30
1.27
1.10
0.87
0.61
0.43
0.36
0.42
0.54
0.67
0.72
0.65
0.50
0.33
0.21
0.19
0.26
0.36
0.43
0.45
0.41
0.36
0.29
0.20
0.07
-0.07
-0.16
-0.16
-0.08
0.01
0.02
-0.09
-0.28
-0.40
-0.38
-0.19
0.03
0.16
0.08
-0.15
-0.43
-0.66
-0.84
-1.01
-1.23
-1.48
-1.61
-1.53
-1.17
-0.67
-0.19
0.09
0.12
-0.02
-0.18
-0.24
-0.14
0.09
0.39
0.68
0.90
1.01
1.00
0.83
0.57
0.27
0.01
-0.16
-0.25
-0.32
-0.43
-0.62
-0.89
-1.17
-1.41
-1.56
-1.62
-1.61
-1.55
-1.48
-1.40
-1.37
-1.39
-1.50
-1.70
-1.99
-2.32
-2.63
-2.85
-2.93
-2.88
-2.73
-2.57
-2.56
-2.85
-3.54
-4.65
-6.13
-7.84
-9.55
-11.05
-12.22
-13.09
-13.80
-14.65
-15.94
-17.84
-20.30
-23.05
-25.72
-27.95
-29.72
-31.30
-33.10
-35.69
-39.33
-43.97
-49.33
-55.13
-61.34
-68.20
-76.32
-86.43
-99.07
-114.03
-129.90
-144.01
-152.89
-153.23
-142.94
-121.65
-90.72
-52.91
-11.78
28.65
64.34
91.82
109.14
116.56
116.67
113.35
110.05
108.34
107.39
104.98
99.46
90.92
81.40
73.54
68.99
67.35
66.56
64.29
59.41
52.57
45.76
40.89
38.68
38.27
37.81
35.72
31.53
26.16
21.24
18.06
16.92
17.02
17.15
16.31
14.27
11.48
8.71
6.61
5.41
4.95
4.88
4.81
4.45
3.64
2.45
1.10
-0.05
-0.68
-0.67
-0.19
0.38
0.67
0.57
0.23
-0.03
-0.01
0.24
0.48
0.46
0.15
-0.27
-0.54
-0.53
-0.35
-0.27
-0.48
-0.92
-1.32
-1.37
-1.00
-0.41
0.04
0.10
-0.23
-0.69
-0.96
-0.89
-0.57
-0.21
-0.02
0.01
0.01
0.17
0.51
0.83
0.90
0.58
-0.05
-0.72
-1.10
-1.07
-0.71
-0.28
-0.03
-0.07
-0.29
-0.51
-0.55
-0.40
-0.19
-0.07
-0.14
-0.38
-0.65
-0.86
-0.95
-0.97
-0.98
-0.98
-0.90
-0.62
-0.10
0.59
1.26
1.71
1.77
1.45
0.86
0.22
-0.31
-0.65
-0.79
-0.82
-0.79
-0.74
-0.70
-0.66
-0.62
-0.55
-0.43
-0.25
-0.06
0.13
0.22
0.17
-0.02
-0.27
-0.48
-0.57
-0.54
-0.44
-0.36
-0.32
-0.30
-0.23
-0.10
0.06
0.13
0.02
-0.26
-0.57
-0.74
-0.65
-0.33
0.07
0.36
0.40
0.20
-0.16
-0.58
-0.97
-1.30
-1.56
-1.73
-1.77
-1.65
-1.37
-0.99
-0.66
-0.48
-0.52
-0.73
-0.99
-1.14
-1.06
-0.72
-0.20
0.34
0.78
1.05
1.20
1.30
1.40
1.47
1.44
1.22
0.82
0.30
-0.22
-0.62
-0.85
-0.93
-0.94
-0.94
-0.96
-0.98
-0.98
-0.94
-0.86
-0.76
-0.69
-0.68
-0.72
-0.78
-0.75
-0.57
-0.18
0.30
0.70
0.82
0.56
-0.02
-0.70
-1.22
-1.43
-1.32
-0.99
-0.59
-0.19
0.20
0.61
0.99
1.26
1.33
1.14
0.75
0.28
-0.14
-0.43
-0.54
-0.51
-0.34
-0.08
0.20
0.40
0.46
0.35
0.10
-0.18
-0.36
-0.40
-0.33
-0.26
-0.29
-0.41
-0.52
-0.46
-0.16
0.32
0.77
0.95
0.77
0.36
-0.03
-0.16
-0.02
0.21
0.25
-0.06
-0.62
-1.16
-1.37
-1.17
-0.77
-0.44
-0.43
-0.68
-0.97
-1.06
-0.86
-0.48
-0.14
0.01
0.01
-0.02
0.04
0.20
0.34
0.32
0.07
-0.35
-0.76
-1.03
-1.13
-1.10
-1.07
-1.12
-1.28
-1.45
-1.56
-1.53
-1.35
-1.11
-0.90
-0.77
-0.72
-0.69
-0.62
-0.51
-0.38
-0.27
-0.17
-0.05
0.12
0.35
0.57
0.66
0.57
0.33
0.08
-0.05
0.00
0.17
0.33
0.34
0.21
0.03
-0.02
0.15
0.50
0.86
1.04
0.96
0.70
0.48
0.46
0.70
1.04
1.23
1.10
0.67
0.15
-0.16
-0.09
0.32
0.85
1.25
1.40
1.33
1.18
1.00
0.74
0.29
-0.44
-1.35
-2.15
-2.54
-2.34
-1.64
-0.77
-0.11
0.10
-0.16
-0.63
-0.96
-0.95
-0.58
-0.07
0.31
0.36
0.09
-0.38
-0.84
-1.20
-1.48
-1.76
-2.06
-2.31
-2.39
-2.16
-1.63
-0.95
-0.39
-0.13
-0.23
-0.53
-0.77
-0.75
-0.40
0.18
0.79
1.23
1.39
1.27
0.93
0.52
0.12
-0.21
-0.44
-0.56
-0.59
-0.54
-0.42
-0.24
0.01
0.31
0.62
0.85
0.95
0.90
0.74
0.53
0.32
0.16
0.01
-0.13
-0.25
-0.31
-0.27
-0.11
0.13
0.34
0.44
0.38
0.20
-0.00
-0.14
-0.16
-0.08
-0.01
-0.03
-0.20
-0.46
-0.70
-0.80
-0.72
-0.51
-0.27
-0.10
-0.09
-0.25
-0.56
-0.92
-1.27
-1.52
-1.59
-1.44
-1.11
-0.65
-0.17
0.25
0.54
0.67
0.67
0.57
0.45
0.33
0.27
0.25
0.23
0.17
0.03
-0.16
-0.34
-0.41
-0.34
-0.14
0.11
0.32
0.44
0.49
0.51
0.55
0.60
0.63
0.60
0.48
0.26
-0.07
-0.49
-0.96
-1.39
-1.66
-1.68
-1.41
-0.96
-0.53
-0.29
-0.27
-0.38
-0.41
-0.27
0.01
0.21
0.12
-0.32
-0.96
-1.51
-1.71
-1.46
-0.90
-0.27
0.18
0.37
0.35
0.26
0.21
0.21
0.21
0.13
-0.00
-0.16
-0.25
-0.23
-0.13
-0.03
0.01
-0.03
-0.09
-0.08
0.05
0.26
0.46
0.50
0.38
0.12
-0.14
-0.33
-0.40
-0.41
-0.39
-0.36
-0.28
-0.13
0.07
0.25
0.32
0.29
0.23
0.25
0.41
0.63
0.75
0.61
0.19
-0.36
-0.79
-0.90
-0.69
-0.35
-0.13
-0.16
-0.42
-0.70
-0.79
-0.63
-0.31
-0.00
0.20
0.30
0.41
0.62
0.90
1.11
1.14
0.93
0.54
0.14
-0.17
-0.32
-0.33
-0.23
-0.10
-0.01
-0.01
-0.12
-0.31
-0.49
-0.56
-0.44
-0.19
0.06
0.15
0.02
-0.30
-0.67
-0.96
-1.05
-0.96
-0.77
-0.60
-0.53
-0.56
-0.66
-0.74
-0.75
-0.69
-0.64
-0.72
-0.96
-1.34
-1.70
-1.88
-1.75
-1.34
-0.77
-0.23
0.15
0.34
0.43
0.55
0.78
1.10
1.41
1.58
1.58
1.46
1.32
1.22
1.13
0.99
0.76
0.48
0.27
0.26
0.44
0.70
0.85
0.76
0.46
0.08
-0.19
-0.26
-0.21
-0.16
-0.23
-0.46
-0.77
-1.03
-1.17
-1.18
-1.05
-0.83
-0.53
-0.22
0.01
0.07
-0.03
-0.24
-0.35
-0.20
0.27
0.96
1.65
2.08
2.12
1.76
1.13
0.47
-0.07
-0.37
-0.43
-0.34
-0.20
-0.14
-0.25
-0.54
-0.96
-1.38
-1.71
-1.83
-1.72
-1.46
-1.14
-0.91
-0.88
-1.07
-1.41
-1.76
-1.96
-1.88
-1.51
-0.92
-0.32
0.08
0.16
-0.05
-0.38
-0.61
-0.55
-0.23
0.21
0.56
0.69
0.67
0.62
0.67
0.79
0.83
0.67
0.32
0.01
-0.02
0.29
0.70
0.76
0.18
-0.89
-1.78
-1.81
-0.70
1.02
2.29
2.25
0.81
-1.16
-2.35
-1.97
-0.30
1.47
2.05
0.98
-1.01
-2.55
-2.57
-1.09
0.87
1.99
1.63
0.20
-1.17
-1.48
-0.53
0.95
1.92
1.73
0.54
-0.89
-1.75
-1.77
-1.28
-0.86
-0.85
-1.07
-1.01
-0.28
0.98
2.06
2.23
1.21
-0.49
-1.91
-2.23
-1.31
0.16
1.19
1.07
-0.13
-1.67
-2.63
-2.52
-1.54
-0.33
0.45
0.56
0.22
-0.11
-0.11
0.23
0.67
0.95
0.98
0.88
0.83
0.91
1.02
1.00
0.80
0.54
0.45
0.65
1.04
1.31
1.16
0.56
-0.19
-0.69
-0.67
-0.26
0.16
0.22
-0.15
-0.63
-0.83
-0.54
0.01
0.38
0.20
-0.49
-1.26
-1.59
-1.25
-0.44
0.38
0.73
0.51
-0.02
-0.51
-0.69
-0.59
-0.40
-0.34
-0.41
-0.49
-0.46
-0.28
-0.11
-0.09
-0.26
-0.53
-0.75
-0.81
-0.74
-0.65
-0.64
-0.71
-0.75
-0.66
-0.38
0.01
0.39
0.64
0.74
0.73
0.69
0.67
0.63
0.53
0.34
0.06
-0.27
-0.56
-0.70
-0.61
-0.27
0.24
0.75
1.04
0.98
0.63
0.20
-0.01
0.15
0.61
1.08
1.27
1.07
0.65
0.33
0.31
0.57
0.87
0.92
0.65
0.22
-0.13
-0.25
-0.23
-0.27
-0.52
-0.91
-1.21
-1.18
-0.74
-0.08
0.51
0.75
0.66
0.39
0.22
0.30
0.60
0.92
0.99
0.68
0.04
-0.71
-1.31
-1.57
-1.48
-1.21
-0.97
-0.88
-0.97
-1.11
-1.18
-1.19
-1.21
-1.33
-1.54
-1.70
-1.63
-1.28
-0.77
-0.31
-0.11
-0.17
-0.32
-0.28
0.05
0.56
0.94
0.94
0.55
0.00
-0.39
-0.41
-0.12
0.23
0.35
0.14
-0.29
-0.68
-0.79
-0.54
-0.04
0.49
0.85
0.93
0.76
0.45
0.13
-0.11
-0.22
-0.20
-0.14
-0.13
-0.23
-0.41
-0.53
-0.38
0.13
0.87
1.51
1.61
0.95
-0.29
-1.52
-2.13
-1.78
-0.76
0.22
0.44
-0.26
-1.38
-2.01
-1.49
0.06
1.78
2.62
2.08
0.53
-0.95
-1.39
-0.52
0.99
2.06
1.96
0.79
-0.60
-1.25
-0.75
0.47
1.53
1.70
0.94
-0.14
-0.75
-0.50
0.36
1.17
1.34
0.77
-0.14
-0.81
-0.88
-0.44
0.10
0.35
0.20
-0.19
-0.50
-0.56
-0.42
-0.23
-0.15
-0.25
-0.43
-0.64
-0.84
-1.01
-1.14
-1.19
-1.10
-0.90
-0.67
-0.49
-0.41
-0.35
-0.18
0.14
0.54
0.80
0.74
0.33
-0.24
-0.73
-0.89
-0.69
-0.26
0.17
0.43
0.44
0.26
0.04
-0.09
-0.06
0.15
0.48
0.84
1.13
1.29
1.28
1.14
0.88
0.56
0.21
-0.12
-0.34
-0.38
-0.24
-0.01
0.09
-0.07
-0.53
-1.09
-1.46
-1.42
-0.94
-0.27
0.28
0.48
0.36
0.11
-0.05
-0.05
-0.01
-0.10
-0.36
-0.68
-0.85
-0.72
-0.36
0.02
0.17
0.01
-0.38
-0.76
-0.94
-0.87
-0.66
-0.48
-0.43
-0.51
-0.61
-0.61
-0.44
-0.11
0.27
0.55
0.67
0.65
0.61
0.70
0.94
1.22
1.33
1.14
0.66
0.10
-0.27
-0.31
-0.07
0.19
0.22
-0.04
-0.45
-0.78
-0.86
-0.73
-0.54
-0.44
-0.45
-0.44
-0.28
0.05
0.41
0.61
0.55
0.29
0.04
-0.05
0.08
0.30
0.45
0.43
0.32
0.29
0.46
0.82
1.20
1.36
1.17
0.72
0.20
-0.11
-0.12
0.10
0.36
0.46
0.36
0.17
0.09
0.17
0.28
0.15
-0.42
-1.38
-2.34
-2.78
-2.34
-1.08
0.44
1.43
1.35
0.26
-1.20
-2.12
-1.93
-0.76
0.61
1.26
0.77
-0.50
-1.59
-1.74
-0.85
0.34
0.79
-0.00
-1.63
-2.88
-2.70
-0.88
1.59
3.21
2.88
0.79
-1.80
-3.30
-2.89
-1.05
0.79
1.31
0.18
-1.73
-2.98
-2.57
-0.66
1.58
2.77
2.30
0.68
-0.83
-1.10
0.06
1.87
3.09
2.92
1.49
-0.28
-1.32
-1.07
0.22
1.74
2.62
2.39
1.20
-0.39
-1.62
-1.93
-1.21
0.18
1.52
2.11
1.63
0.38
-0.87
-1.33
-0.68
0.62
1.69
1.74
0.70
-0.79
-1.76
-1.64
-0.56
0.72
1.34
0.93
-0.18
-1.32
-1.91
-1.78
-1.24
-0.79
-0.78
-1.21
-1.79
-2.09
-1.83
-1.07
-0.17
0.46
0.57
0.26
-0.10
-0.19
0.11
0.52
0.68
0.38
-0.22
-0.65
-0.52
0.23
1.21
1.87
1.90
1.40
0.77
0.40
0.34
0.37
0.17
-0.37
-1.08
-1.61
-1.69
-1.30
-0.64
-0.05
0.28
0.31
0.17
0.06
0.08
0.26
0.51
0.71
0.74
0.62
0.41
0.28
0.33
0.57
0.89
1.07
0.95
0.45
-0.26
-0.93
-1.26
-1.10
-0.52
0.21
0.74
0.86
0.55
0.05
-0.37
-0.49
-0.30
-0.00
0.14
-0.09
-0.63
-1.26
-1.68
-1.70
-1.35
-0.88
-0.55
-0.51
-0.71
-0.89
-0.83
-0.47
0.04
0.47
0.66
0.64
0.58
0.65
0.88
1.12
1.19
1.02
0.75
0.58
0.65
0.89
1.08
1.01
0.62
0.10
-0.33
-0.51
-0.50
-0.53
-0.79
-1.25
-1.66
-1.73
-1.32
-0.63
-0.04
0.13
-0.11
-0.48
-0.59
-0.24
0.43
1.05
1.25
1.01
0.55
0.25
0.29
0.59
0.86
0.82
0.47
-0.00
-0.37
-0.53
-0.62
-0.83
-1.23
-1.69
-1.96
-1.82
-1.28
-0.55
0.06
0.34
0.29
0.02
-0.28
-0.51
-0.65
-0.72
-0.71
-0.59
-0.32
0.10
0.57
0.98
1.24
1.34
1.29
1.14
0.91
0.63
0.36
0.16
0.12
0.23
0.42
0.59
0.66
0.61
0.55
0.58
0.75
0.99
1.15
1.11
0.78
0.22
-0.42
-0.98
-1.35
-1.49
-1.41
-1.24
-1.03
-0.85
-0.73
-0.66
-0.62
-0.55
-0.44
-0.27
-0.10
0.02
0.00
-0.17
-0.48
-0.81
-1.04
-1.10
-0.93
-0.57
-0.05
0.56
1.18
1.67
1.83
1.51
0.67
-0.48
-1.51
-1.94
-1.54
-0.48
0.72
1.51
1.58
1.07
0.39
-0.10
-0.31
-0.50
-0.94
-1.72
-2.56
-3.01
-2.77
-1.91
-0.89
-0.13
0.17
0.18
0.24
0.50
0.88
1.09
0.95
0.56
0.26
0.32
0.78
1.34
1.59
1.29
0.56
-0.25
-0.75
-0.82
-0.64
-0.47
-0.46
-0.52
-0.37
0.18
1.07
2.04
2.70
2.83
2.43
1.74
1.07
0.67
0.63
0.88
1.25
1.55
1.65
1.51
1.20
0.83
0.55
0.44
0.47
0.54
0.54
0.46
0.33
0.26
0.30
0.34
0.20
-0.33
-1.27
-2.42
-3.40
-3.82
-3.54
-2.73
-1.80
-1.17
-1.01
-1.20
-1.45
-1.50
-1.35
-1.20
-1.30
-1.75
-2.42
-3.03
-3.36
-3.36
-3.22
-3.19
-3.40
-3.79
-4.14
-4.19
-3.88
-3.34
-2.87
-2.72
-2.94
-3.33
-3.59
-3.52
-3.12
-2.69
-2.58
-3.04
-4.05
-5.32
-6.51
-7.42
-8.10
-8.78
-9.75
-11.17
-13.10
-15.51
-18.26
-21.26
-24.37
-27.46
-30.40
-33.07
-35.54
-38.05
-40.97
-44.37
-48.08
-51.63
-54.56
-56.53
-57.66
-58.58
-60.15
-63.17
-67.41
-72.17
-76.13
-78.26
-77.77
-74.55
-68.87
-60.72
-49.47
-33.22
-10.11
21.42
61.65
110.00
164.95
224.60
287.33
347.14
397.65
432.31
447.22
442.28
421.37
389.48
350.26
305.02
252.99
193.18
124.64
51.50
-24.17
-98.04
-164.13
-216.83
-253.32
-275.08
-282.79
-282.08
-279.08
-277.37
-276.48
-273.38
-264.97
-249.80
-228.11
-200.45
-167.73
